-0.751
-0.767
-0.769
-0.76
-0.746
-0.734
-0.731
-0.733
-0.754
-0.761
-0.767
-0.763
-0.74
-0.739
-0.738
-0.734
-0.721
-0.707
-0.709
-0.734
-0.743
-0.723
-0.716
-0.718
-0.733
-0.747
-0.741
-0.728
-0.73
-0.74
-0.744
-0.743
-0.746
-0.761
-0.766
-0.757
-0.752
-0.75
-0.752
-0.783
-0.804
-0.82
-0.85
-0.848
-0.863
-0.876
-0.881
-0.891
-0.875
-0.858
-0.844
-0.847
-0.863
-0.866
-0.858
-0.821
-0.774
-0.769
-0.787
-0.799
-0.782
-0.767
-0.783
-0.782
-0.799
-0.833
-0.853
-0.877
-0.902
-0.93
-0.941
-0.967
-0.964
-0.96
-1.054
-1.104
-1.097
-1.133
-1.192
-1.261
-1.312
-1.313
-1.312
-1.299
-1.269
-1.236
-1.206
-1.157
-1.098
-1.029
-0.931
-0.812
-0.655
-0.518
-0.383
-0.217
-0.112
-0.059
0.099
0.306
0.452
0.574
0.711
0.825
0.859
0.856
0.848
0.836
0.852
0.94
0.979
0.954
0.964
0.969
0.96
0.915
0.817
0.684
0.548
0.443
0.379
0.316
0.246
0.192
0.124
0.05
-0.003
-0.073
-0.157
-0.236
-0.296
-0.306
-0.306
-0.316
-0.347
-0.356
-0.351
-0.37
-0.383
-0.395
-0.406
-0.419
-0.437
-0.448
-0.442
-0.443
-0.463
-0.5
-0.545
-0.57
-0.596
-0.621
-0.637
-0.655
-0.663
-0.66
-0.676
-0.691
-0.689
-0.703
-0.697
-0.674
-0.662
-0.677
-0.71
-0.711
-0.699
-0.703
-0.722
-0.717
-0.706
-0.725
-0.733
-0.727
-0.736
-0.733
-0.731
-0.739
-0.745
-0.755
-0.761
-0.766
-0.761
-0.757
-0.76
-0.772
-0.771
-0.755
-0.769
-0.774
-0.779
-0.789
-0.776
-0.772
-0.758
-0.747
-0.763
-0.765
-0.745
-0.757
-0.763
-0.755
-0.744
-0.742
-0.754
-0.78
-0.789
-0.75
-0.744
-0.756
-0.774
-0.789
-0.783
-0.771
-0.768
-0.778
-0.768
-0.762
-0.767
-0.767
-0.775
-0.784
-0.781
-0.77
-0.764
-0.764
-0.769
-0.78
-0.777
-0.763
-0.757
-0.783
-0.807
-0.807
-0.801
-0.79
-0.79
-0.793
-0.8
-0.79
-0.764
-0.764
-0.789
-0.795
-0.781
-0.776
-0.763
-0.759
-0.773
-0.785
-0.791
-0.78
-0.779
-0.781
-0.779
-0.788
-0.777
-0.767
-0.761
-0.769
-0.784
-0.771
-0.781
-0.791
-0.783
-0.795
-0.795
-0.772
-0.748
-0.772
-0.81
-0.815
-0.806
-0.804
-0.804
-0.802
-0.8
-0.782
-0.773
-0.781
-0.793
-0.789
-0.789
-0.801
-0.792
-0.777
-0.763
-0.765
-0.785
-0.794
-0.778
-0.783
-0.796
-0.791
-0.793
-0.788
-0.788
-0.8
-0.806
-0.798
-0.801
-0.812
-0.814
-0.813
-0.796
-0.771
-0.775
-0.792
-0.814
-0.828
-0.803
-0.791
-0.808
-0.812
-0.814
-0.793
-0.762
-0.772
-0.771
-0.772
-0.787
-0.803
-0.82
-0.807
-0.789
-0.778
-0.794
-0.829
-0.846
-0.838
-0.835
-0.833
-0.82
-0.829
-0.821
-0.82
-0.829
-0.829
-0.823
-0.806
-0.798
-0.802
-0.818
-0.838
-0.833
-0.827
-0.83
-0.811
-0.808
-0.814
-0.817
-0.817
-0.818
-0.825
-0.822
-0.809
-0.814
-0.809
-0.806
-0.808
-0.781
-0.794
-0.8
-0.774
-0.773
-0.785
-0.794
-0.79
-0.809
-0.823
-0.811
-0.797
-0.763
-0.745
-0.76
-0.772
-0.77
-0.765
-0.768
-0.785
-0.795
-0.782
-0.779
-0.779
-0.772
-0.788
-0.77
-0.763
-0.798
-0.792
-0.772
-0.752
-0.743
-0.752
-0.755
-0.756
-0.75
-0.752
-0.746
-0.741
-0.752
-0.745
-0.742
-0.732
-0.717
-0.711
-0.704
-0.718
-0.73
-0.723
-0.71
-0.697
-0.686
-0.688
-0.692
-0.69
-0.689
-0.688
-0.679
-0.669
-0.671
-0.685
-0.676
-0.677
-0.698
-0.675
-0.661
-0.671
-0.671
-0.673
-0.685
-0.699
-0.696
-0.673
-0.676
-0.701
-0.721
-0.708
-0.688
-0.667
-0.648
-0.679
-0.676
-0.66
-0.666
-0.693
-0.715
-0.701
-0.697
-0.686
-0.674
-0.677
-0.677
-0.682
-0.695
-0.704
-0.697
-0.68
-0.678
-0.678
-0.666
-0.665
-0.68
-0.682
-0.673
-0.666
-0.652
-0.664
-0.694
-0.698
-0.69
-0.679
-0.69
-0.703
-0.695
-0.694
-0.696
-0.702
-0.683
-0.681
-0.712
-0.704
-0.705
-0.719
-0.709
-0.697
-0.692
-0.692
-0.688
-0.699
-0.709
-0.691
-0.684
-0.681
-0.672
-0.671
-0.682
-0.678
-0.665
-0.679
-0.688
-0.682
-0.68
-0.674
-0.675
-0.681
-0.675
-0.68
-0.679
-0.673
-0.674
-0.675
-0.696
-0.698
-0.694
-0.706
-0.689
-0.693
-0.706
-0.699
-0.699
-0.671
-0.656
-0.686
-0.683
-0.675
-0.689
-0.683
-0.667
-0.659
-0.672
-0.678
-0.679
-0.69
-0.7
-0.696
-0.681
-0.672
-0.678
-0.679
-0.665
-0.669
-0.673
-0.684
-0.668
-0.661
-0.683
-0.691
-0.703
-0.704
-0.709
-0.704
-0.699
-0.7
-0.689
-0.693
-0.698
-0.71
-0.716
-0.707
-0.702
-0.701
-0.698
-0.695
-0.7
-0.697
-0.707
-0.713
-0.707
-0.719
-0.694
-0.68
-0.692
-0.692
-0.689
-0.678
-0.68
-0.662
-0.661
-0.676
-0.685
-0.682
-0.657
-0.656
-0.673
-0.684
-0.682
-0.675
-0.674
-0.67
-0.673
-0.668
-0.662
-0.68
-0.689
-0.683
-0.698
-0.691
-0.665
-0.67
-0.683
-0.679
-0.658
-0.661
-0.687
-0.702
-0.707
-0.698
-0.681
-0.651
-0.628
-0.639
-0.656
-0.657
-0.654
-0.654
-0.668
-0.685
-0.689
-0.716
-0.725
-0.713
-0.684
-0.665
-0.689
-0.703
-0.713
-0.709
-0.671
-0.639
-0.639
-0.65
-0.695
-0.712
-0.684
-0.675
-0.695
-0.696
-0.672
-0.688
-0.707
-0.729
-0.729
-0.71
-0.715
-0.732
-0.744
-0.744
-0.75
-0.759
-0.745
-0.74
-0.754
-0.752
-0.743
-0.733
-0.741
-0.744
-0.742
-0.746
-0.746
-0.747
-0.743
-0.76
-0.779
-0.785
-0.776
-0.763
-0.771
-0.76
-0.739
-0.737
-0.73
-0.723
-0.713
-0.707
-0.708
-0.694
-0.694
-0.709
-0.715
-0.713
-0.715
-0.724
-0.728
-0.715
-0.699
-0.706
-0.734
-0.745
-0.733
-0.731
-0.73
-0.737
-0.757
-0.763
-0.76
-0.75
-0.73
-0.713
-0.709
-0.72
-0.73
-0.725
-0.71
-0.712
-0.732
-0.727
-0.712
-0.709
-0.722
-0.739
-0.737
-0.745
-0.732
-0.723
-0.73
-0.727
-0.735
-0.735
-0.729
-0.732
-0.746
-0.746
-0.735
-0.737
-0.723
-0.719
-0.748
-0.753
-0.749
-0.743
-0.726
-0.732
-0.739
-0.74
-0.756
-0.763
-0.752
-0.749
-0.736
-0.747
-0.766
-0.748
-0.743
-0.747
-0.746
-0.74
-0.718
-0.701
-0.692
-0.713
-0.75
-0.762
-0.761
-0.753
-0.738
-0.734
-0.743
-0.747
-0.751
-0.734
-0.717
-0.746
-0.765
-0.761
-0.75
-0.732
-0.729
-0.733
-0.741
-0.74
-0.717
-0.71
-0.714
-0.728
-0.743
-0.746
-0.754
-0.749
-0.741
-0.741
-0.744
-0.752
-0.748
-0.755
-0.753
-0.742
-0.741
-0.744
-0.746
-0.746
-0.753
-0.753
-0.757
-0.757
-0.753
-0.762
-0.77
-0.769
-0.763
-0.753
-0.756
-0.744
-0.727
-0.742
-0.744
-0.738
-0.733
-0.733
-0.747
-0.75
-0.745
-0.74
-0.736
-0.739
-0.75
-0.769
-0.767
-0.768
-0.772
-0.753
-0.733
-0.741
-0.76
-0.782
-0.803
-0.807
-0.818
-0.852
-0.902
-0.904
-0.869
-0.871
-0.897
-0.906
-0.888
-0.858
-0.849
-0.84
-0.826
-0.829
-0.819
-0.809
-0.807
-0.805
-0.816
-0.832
-0.821
-0.808
-0.817
-0.838
-0.87
-0.899
-0.926
-0.964
-1
-1.003
-1.016
-1.046
-1.101
-1.128
-1.157
-1.226
-1.253
-1.295
-1.328
-1.317
-1.298
-1.246
-1.185
-1.161
-1.097
-1.033
-0.991
-0.889
-0.757
-0.596
-0.451
-0.329
-0.209
-0.122
-0.039
0.127
0.331
0.481
0.609
0.74
0.815
0.846
0.858
0.855
0.868
0.901
0.982
0.998
0.971
1.001
0.996
0.944
0.905
0.82
0.69
0.565
0.438
0.342
0.275
0.2
0.125
0.073
0.016
-0.041
-0.11
-0.203
-0.267
-0.315
-0.355
-0.359
-0.352
-0.371
-0.378
-0.382
-0.393
-0.386
-0.396
-0.417
-0.436
-0.454
-0.458
-0.461
-0.488
-0.531
-0.562
-0.577
-0.57
-0.586
-0.623
-0.656
-0.697
-0.703
-0.7
-0.709
-0.723
-0.727
-0.723
-0.729
-0.709
-0.711
-0.736
-0.745
-0.743
-0.745
-0.751
-0.753
-0.758
-0.744
-0.759
-0.773
-0.743
-0.724
-0.74
-0.745
-0.737
-0.756
-0.748
-0.736
-0.751
-0.756
-0.776
-0.776
-0.764
-0.781
-0.796
-0.807
-0.788
-0.78
-0.763
-0.733
-0.748
-0.766
-0.787
-0.801
-0.803
-0.793
-0.784
-0.792
-0.784
-0.77
-0.776
-0.775
-0.773
-0.773
-0.781
-0.811
-0.809
-0.793
-0.794
-0.792
-0.79
-0.779
-0.764
-0.766
-0.788
-0.797
-0.8
-0.808
-0.818
-0.815
-0.807
-0.806
-0.814
-0.828
-0.831
-0.81
-0.785
-0.78
-0.782
-0.783
-0.781
-0.787
-0.796
-0.801
-0.806
-0.801
-0.804
-0.816
-0.822
-0.821
-0.834
-0.841
-0.827
-0.823
-0.816
-0.812
-0.82
-0.825
-0.829
-0.821
-0.808
-0.807
-0.804
-0.808
-0.819
-0.805
-0.802
-0.788
-0.779
-0.806
-0.805
-0.793
-0.797
-0.807
-0.832
-0.851
-0.842
-0.819
-0.837
-0.844
-0.827
-0.838
-0.833
-0.819
-0.807
-0.806
-0.807
-0.809
-0.83
-0.832
-0.819
-0.827
-0.848
-0.832
-0.831
-0.845
-0.84
-0.839
-0.836
-0.829
-0.825
-0.833
-0.853
-0.867
-0.861
-0.863
-0.861
-0.86
-0.836
-0.812
-0.822
-0.836
-0.84
-0.842
-0.846
-0.848
-0.854
-0.83
-0.819
-0.813
-0.81
-0.847
-0.847
-0.837
-0.84
-0.843
-0.841
-0.836
-0.842
-0.842
-0.851
-0.851
-0.838
-0.843
-0.842
-0.839
-0.854
-0.858
-0.849
-0.851
-0.859
-0.868
-0.869
-0.87
-0.869
-0.849
-0.833
-0.843
-0.856
-0.851
-0.856
-0.866
-0.857
-0.852
-0.849
-0.843
-0.83
-0.808
-0.825
-0.844
-0.85
-0.867
-0.859
-0.842
-0.828
-0.828
-0.839
-0.842
-0.831
-0.824
-0.829
-0.843
-0.85
-0.839
-0.825
-0.819
-0.823
-0.815
-0.839
-0.863
-0.832
-0.825
-0.82
-0.782
-0.78
-0.797
-0.801
-0.799
-0.785
-0.771
-0.784
-0.821
-0.826
-0.817
-0.83
-0.832
-0.801
-0.782
-0.793
-0.79
-0.786
-0.798
-0.812
-0.806
-0.785
-0.775
-0.776
-0.791
-0.774
-0.741
-0.74
-0.75
-0.746
-0.741
-0.75
-0.749
-0.757
-0.761
-0.763
-0.767
-0.754
-0.745
-0.741
-0.735
-0.736
-0.725
-0.718
-0.734
-0.721
-0.709
-0.717
-0.724
-0.717
-0.707
-0.714
-0.728
-0.719
-0.698
-0.704
-0.71
-0.709
-0.699
-0.7
-0.71
-0.709
-0.71
-0.702
-0.702
-0.704
-0.715
-0.709
-0.69
-0.695
-0.7
-0.71
-0.72
-0.731
-0.732
-0.719
-0.72
-0.726
-0.706
-0.697
-0.702
-0.696
-0.711
-0.714
-0.709
-0.715
-0.701
-0.695
-0.706
-0.714
-0.714
-0.705
-0.704
-0.694
-0.694
-0.701
-0.704
-0.716
-0.724
-0.726
-0.726
-0.703
-0.707
-0.737
-0.729
-0.728
-0.721
-0.726
-0.725
-0.708
-0.735
-0.728
-0.729
-0.737
-0.703
-0.696
-0.706
-0.715
-0.721
-0.716
-0.707
-0.713
-0.725
-0.722
-0.726
-0.723
-0.713
-0.713
-0.725
-0.724
-0.714
-0.72
-0.732
-0.732
-0.725
-0.725
-0.721
-0.722
-0.735
-0.732
-0.714
-0.7
-0.703
-0.701
-0.709
-0.722
-0.713
-0.713
-0.706
-0.709
-0.73
-0.731
-0.731
-0.727
-0.721
-0.726
-0.73
-0.725
-0.716
-0.703
-0.677
-0.696
-0.715
-0.703
-0.707
-0.704
-0.698
-0.712
-0.724
-0.716
-0.718
-0.714
-0.724
-0.722
-0.701
-0.717
-0.728
-0.726
-0.727
-0.725
-0.724
-0.718
-0.72
-0.731
-0.732
-0.739
-0.733
-0.733
-0.739
-0.734
-0.742
-0.744
-0.742
-0.74
-0.736
-0.737
-0.749
-0.743
-0.733
-0.732
-0.708
-0.692
-0.698
-0.724
-0.747
-0.733
-0.717
-0.723
-0.745
-0.749
-0.748
-0.741
-0.709
-0.714
-0.703
-0.707
-0.732
-0.711
-0.699
-0.702
-0.708
-0.706
-0.706
-0.704
-0.706
-0.711
-0.706
-0.711
-0.713
-0.698
-0.699
-0.703
-0.707
-0.714
-0.709
-0.713
-0.712
-0.712
-0.722
-0.726
-0.726
-0.723
-0.715
-0.714
-0.731
-0.73
-0.711
-0.716
-0.716
-0.716
-0.717
-0.711
-0.735
-0.748
-0.72
-0.71
-0.726
-0.748
-0.756
-0.74
-0.723
-0.718
-0.721
-0.713
-0.732
-0.747
-0.74
-0.75
-0.758
-0.752
-0.747
-0.755
-0.748
-0.75
-0.758
-0.764
-0.781
-0.786
-0.794
-0.796
-0.8
-0.809
-0.806
-0.806
-0.81
-0.817
-0.8
-0.778
-0.79
-0.798
-0.805
-0.795
-0.785
-0.802
-0.799
-0.785
-0.77
-0.756
-0.75
-0.742
-0.739
-0.73
-0.726
-0.737
-0.75
-0.749
-0.715
-0.695
-0.709
-0.725
-0.737
-0.741
-0.751
-0.769
-0.762
-0.754
-0.755
-0.752
-0.759
-0.775
-0.767
-0.762
-0.773
-0.763
-0.758
-0.757
-0.762
-0.751
-0.726
-0.732
-0.746
-0.75
-0.745
-0.74
-0.739
-0.75
-0.754
-0.742
-0.743
-0.753
-0.763
-0.776
-0.772
-0.764
-0.76
-0.76
-0.763
-0.754
-0.748
-0.744
-0.739
-0.745
-0.75
-0.76
-0.76
-0.754
-0.757
-0.746
-0.756
-0.755
-0.752
-0.756
-0.739
-0.752
-0.768
-0.766
-0.764
-0.764
-0.756
-0.745
-0.752
-0.766
-0.772
-0.773
-0.766
-0.77
-0.772
-0.749
-0.736
-0.742
-0.74
-0.731
-0.746
-0.758
-0.757
-0.761
-0.752
-0.743
-0.733
-0.741
-0.76
-0.767
-0.757
-0.735
-0.718
-0.723
-0.744
-0.74
-0.732
-0.73
-0.725
-0.745
-0.758
-0.755
-0.758
-0.735
-0.736
-0.768
-0.759
-0.745
-0.741
-0.746
-0.742
-0.721
-0.71
-0.708
-0.713
-0.732
-0.754
-0.754
-0.75
-0.748
-0.742
-0.738
-0.739
-0.737
-0.724
-0.736
-0.737
-0.734
-0.74
-0.744
-0.754
-0.748
-0.747
-0.745
-0.739
-0.723
-0.724
-0.738
-0.719
-0.722
-0.734
-0.758
-0.78
-0.746
-0.728
-0.747
-0.747
-0.737
-0.739
-0.768
-0.793
-0.806
-0.827
-0.86
-0.885
-0.877
-0.904
-0.915
-0.888
-0.876
-0.88
-0.883
-0.872
-0.884
-0.846
-0.799
-0.794
-0.786
-0.788
-0.789
-0.796
-0.799
-0.821
-0.838
-0.832
-0.842
-0.877
-0.906
-0.906
-0.926
-0.968
-1.001
-1.034
-1.053
-1.08
-1.122
-1.165
-1.221
-1.277
-1.321
-1.365
-1.388
-1.399
-1.377
-1.31
-1.265
-1.252
-1.211
-1.159
-1.096
-1.01
-0.9
-0.742
-0.593
-0.473
-0.348
-0.248
-0.168
-0.011
0.192
0.341
0.433
0.539
0.634
0.679
0.722
0.752
0.794
0.817
0.856
0.922
0.92
0.918
0.93
0.889
0.85
0.767
0.637
0.52
0.414
0.326
0.26
0.209
0.148
0.098
0.052
-0.025
-0.103
-0.164
-0.21
-0.266
-0.312
-0.332
-0.339
-0.347
-0.363
-0.366
-0.372
-0.381
-0.395
-0.423
-0.437
-0.438
-0.434
-0.432
-0.463
-0.49
-0.5
-0.533
-0.572
-0.595
-0.611
-0.643
-0.678
-0.684
-0.677
-0.686
-0.702
-0.697
-0.694
-0.698
-0.683
-0.677
-0.684
-0.718
-0.735
-0.722
-0.72
-0.713
-0.712
-0.718
-0.724
-0.726
-0.713
-0.715
-0.717
-0.704
-0.716
-0.723
-0.725
-0.738
-0.739
-0.739
-0.739
-0.738
-0.744
-0.756
-0.75
-0.73
-0.742
-0.748
-0.746
-0.75
-0.743
-0.738
-0.742
-0.742
-0.737
-0.748
-0.759
-0.76
-0.755
-0.749
-0.755
-0.763
-0.765
-0.76
-0.741
-0.708
-0.715
-0.751
-0.773
-0.79
-0.771
-0.746
-0.746
-0.741
-0.742
-0.757
-0.774
-0.789
-0.788
-0.774
-0.777
-0.786
-0.778
-0.759
-0.765
-0.763
-0.753
-0.773
-0.781
-0.777
-0.777
-0.783
-0.798
-0.792
-0.768
-0.776
-0.774
-0.757
-0.75
-0.75
-0.765
-0.767
-0.759
-0.767
-0.778
-0.782
-0.791
-0.786
-0.791
-0.807
-0.8
-0.787
-0.768
-0.773
-0.782
-0.78
-0.795
-0.79
-0.779
-0.776
-0.766
-0.767
-0.767
-0.766
-0.768
-0.775
-0.781
-0.771
-0.763
-0.759
-0.762
-0.776
-0.783
-0.789
-0.795
-0.772
-0.754
-0.77
-0.776
-0.764
-0.773
-0.77
-0.759
-0.769
-0.774
-0.778
-0.778
-0.781
-0.771
-0.762
-0.761
-0.771
-0.784
-0.769
-0.775
-0.79
-0.789
-0.793
-0.785
-0.779
-0.778
-0.77
-0.764
-0.778
-0.798
-0.793
-0.781
-0.773
-0.764
-0.767
-0.77
-0.76
-0.768
-0.786
-0.787
-0.774
-0.773
-0.779
-0.776
-0.776
-0.775
-0.783
-0.781
-0.776
-0.79
-0.784
-0.783
-0.793
-0.783
-0.763
-0.765
-0.773
-0.789
-0.818
-0.812
-0.791
-0.782
-0.771
-0.772
-0.775
-0.777
-0.778
-0.763
-0.769
-0.762
-0.751
-0.755
-0.753
-0.771
-0.778
-0.781
-0.787
-0.783
-0.789
-0.783
-0.769
-0.766
-0.765
-0.763
-0.767
-0.775
-0.754
-0.737
-0.751
-0.752
-0.751
-0.76
-0.755
-0.755
-0.759
-0.744
-0.745
-0.752
-0.742
-0.723
-0.704
-0.725
-0.745
-0.729
-0.725
-0.723
-0.719
-0.713
-0.716
-0.716
-0.715
-0.722
-0.712
-0.728
-0.743
-0.729
-0.733
-0.73
-0.694
-0.678
-0.699
-0.717
-0.732
-0.723
-0.701
-0.683
-0.662
-0.657
-0.67
-0.699
-0.686
-0.678
-0.701
-0.68
-0.67
-0.676
-0.689
-0.696
-0.681
-0.679
-0.682
-0.682
-0.68
-0.682
-0.678
-0.673
-0.675
-0.664
-0.659
-0.664
-0.659
-0.657
-0.66
-0.664
-0.67
-0.669
-0.668
-0.662
-0.661
-0.663
-0.663
-0.668
-0.673
-0.672
-0.656
-0.649
-0.655
-0.654
-0.653
-0.648
-0.645
-0.649
-0.658
-0.665
-0.681
-0.684
-0.673
-0.668
-0.663
-0.675
-0.678
-0.68
-0.677
-0.659
-0.664
-0.664
-0.665
-0.672
-0.675
-0.677
-0.684
-0.689
-0.688
-0.684
-0.68
-0.684
-0.679
-0.69
-0.693
-0.702
-0.7
-0.674
-0.682
-0.68
-0.662
-0.662
-0.673
-0.678
-0.69
-0.703
-0.696
-0.66
-0.642
-0.649
-0.671
-0.693
-0.7
-0.714
-0.702
-0.685
-0.686
-0.689
-0.684
-0.675
-0.678
-0.682
-0.694
-0.691
-0.685
-0.692
-0.673
-0.66
-0.676
-0.683
-0.692
-0.696
-0.681
-0.695
-0.705
-0.692
-0.695
-0.709
-0.697
-0.671
-0.674
-0.681
-0.681
-0.683
-0.68
-0.695
-0.698
-0.677
-0.669
-0.665
-0.676
-0.678
-0.677
-0.687
-0.684
-0.685
-0.689
-0.691
-0.689
-0.693
-0.685
-0.674
-0.683
-0.696
-0.692
-0.681
-0.69
-0.704
-0.706
-0.696
-0.692
-0.682
-0.675
-0.698
-0.705
-0.696
-0.699
-0.716
-0.729
-0.722
-0.713
-0.712
-0.699
-0.683
-0.684
-0.687
-0.686
-0.688
-0.692
-0.696
-0.699
-0.706
-0.71
-0.705
-0.686
-0.68
-0.71
-0.718
-0.699
-0.71
-0.721
-0.702
-0.691
-0.693
-0.7
-0.712
-0.699
-0.677
-0.672
-0.665
-0.66
-0.666
-0.675
-0.678
-0.691
-0.705
-0.723
-0.721
-0.67
-0.649
-0.654
-0.67
-0.689
-0.686
-0.677
-0.676
-0.683
-0.696
-0.689
-0.667
-0.671
-0.697
-0.705
-0.692
-0.682
-0.682
-0.678
-0.677
-0.694
-0.706
-0.695
-0.684
-0.688
-0.688
-0.694
-0.695
-0.691
-0.698
-0.704
-0.684
-0.675
-0.688
-0.686
-0.697
-0.705
-0.708
-0.705
-0.696
-0.705
-0.716
-0.723
-0.72
-0.71
-0.717
-0.726
-0.733
-0.747
-0.739
-0.735
-0.73
-0.717
-0.731
-0.744
-0.748
-0.751
-0.754
-0.767
-0.78
-0.782
-0.773
-0.765
-0.78
-0.776
-0.767
-0.771
-0.77
-0.78
-0.783
-0.773
-0.771
-0.773
-0.764
-0.73
-0.707
-0.717
-0.716
-0.719
-0.723
-0.713
-0.695
-0.685
-0.715
-0.735
-0.733
-0.718
-0.714
-0.729
-0.741
-0.749
-0.746
-0.742
-0.739
-0.729
-0.709
-0.708
-0.725
-0.738
-0.735
-0.721
-0.714
-0.709
-0.713
-0.724
-0.731
-0.729
-0.724
-0.727
-0.729
-0.731
-0.732
-0.731
-0.729
-0.726
-0.734
-0.747
-0.755
-0.75
-0.738
-0.733
-0.735
-0.73
-0.727
-0.727
-0.725
-0.715
-0.707
-0.714
-0.724
-0.726
-0.723
-0.742
-0.742
-0.727
-0.732
-0.731
-0.742
-0.731
-0.698
-0.715
-0.75
-0.752
-0.75
-0.76
-0.75
-0.737
-0.749
-0.756
-0.757
-0.743
-0.725
-0.707
-0.699
-0.718
-0.741
-0.743
-0.722
-0.719
-0.734
-0.731
-0.746
-0.735
-0.7
-0.71
-0.714
-0.717
-0.719
-0.714
-0.705
-0.698
-0.709
-0.715
-0.717
-0.726
-0.743
-0.75
-0.75
-0.735
-0.704
-0.7
-0.719
-0.734
-0.74
-0.731
-0.713
-0.714
-0.698
-0.682
-0.706
-0.72
-0.72
-0.719
-0.722
-0.716
-0.722
-0.732
-0.72
-0.726
-0.724
-0.726
-0.712
-0.697
-0.712
-0.714
-0.724
-0.716
-0.704
-0.711
-0.711
-0.714
-0.717
-0.717
-0.718
-0.715
-0.721
-0.735
-0.731
-0.722
-0.733
-0.733
-0.721
-0.709
-0.698
-0.702
-0.725
-0.751
-0.755
-0.746
-0.739
-0.777
-0.835
-0.85
-0.858
-0.864
-0.863
-0.874
-0.877
-0.872
-0.869
-0.851
-0.834
-0.819
-0.791
-0.768
-0.762
-0.774
-0.784
-0.779
-0.794
-0.801
-0.777
-0.809
-0.839
-0.838
-0.866
-0.88
-0.903
-0.945
-0.981
-1.024
-1.052
-1.08
-1.129
-1.191
-1.25
-1.302
-1.381
-1.454
-1.496
-1.521
-1.508
-1.466
-1.409
-1.353
-1.302
-1.225
-1.167
-1.112
-1.006
-0.874
-0.74
-0.591
-0.464
-0.385
-0.293
-0.21
-0.064
0.131
0.275
0.409
0.499
0.546
0.616
0.655
0.665
0.671
0.688
0.742
0.764
0.763
0.754
0.748
0.715
0.637
0.548
0.46
0.394
0.336
0.274
0.204
0.164
0.136
0.095
0.044
-0.013
-0.051
-0.102
-0.191
-0.272
-0.272
-0.271
-0.278
-0.279
-0.312
-0.319
-0.342
-0.369
-0.387
-0.393
-0.385
-0.395
-0.417
-0.443
-0.453
-0.487
-0.528
-0.55
-0.561
-0.579
-0.603
-0.607
-0.627
-0.654
-0.664
-0.652
-0.655
-0.659
-0.644
-0.64
-0.641
-0.66
-0.669
-0.669
-0.669
-0.677
-0.687
-0.692
-0.698
-0.693
-0.693
-0.685
-0.662
-0.663
-0.684
-0.696
-0.708
-0.71
-0.707
-0.705
-0.706
-0.714
-0.692
-0.692
-0.689
-0.666
-0.688
-0.705
-0.697
-0.685
-0.695
-0.719
-0.736
-0.736
-0.722
-0.709
-0.709
-0.718
-0.707
-0.716
-0.725
-0.713
-0.713
-0.712
-0.716
-0.716
-0.718
-0.711
-0.701
-0.706
-0.712
-0.715
-0.709
-0.711
-0.716
-0.718
-0.716
-0.718
-0.733
-0.737
-0.724
-0.717
-0.731
-0.74
-0.746
-0.761
-0.747
-0.721
-0.732
-0.746
-0.716
-0.696
-0.712
-0.729
-0.719
-0.709
-0.699
-0.703
-0.725
-0.725
-0.735
-0.735
-0.741
-0.742
-0.717
-0.721
-0.733
-0.737
-0.737
-0.736
-0.741
-0.737
-0.714
-0.706
-0.726
-0.729
-0.737
-0.737
-0.732
-0.746
-0.739
-0.731
-0.738
-0.752
-0.751
-0.746
-0.743
-0.737
-0.74
-0.739
-0.73
-0.73
-0.719
-0.714
-0.733
-0.731
-0.712
-0.729
-0.753
-0.735
-0.71
-0.701
-0.719
-0.736
-0.728
-0.722
-0.704
-0.698
-0.712
-0.725
-0.732
-0.712
-0.702
-0.706
-0.71
-0.722
-0.724
-0.73
-0.736
-0.729
-0.71
-0.703
-0.717
-0.716
-0.718
-0.755
-0.767
-0.734
-0.715
-0.721
-0.728
-0.737
-0.738
-0.721
-0.71
-0.712
-0.722
-0.727
-0.711
-0.708
-0.718
-0.723
-0.724
-0.722
-0.72
-0.712
-0.713
-0.72
-0.726
-0.724
-0.717
-0.704
-0.694
-0.719
-0.718
-0.688
-0.686
-0.689
-0.684
-0.691
-0.701
-0.703
-0.704
-0.708
-0.715
-0.718
-0.717
-0.706
-0.698
-0.694
-0.689
-0.695
-0.703
-0.712
-0.714
-0.704
-0.705
-0.714
-0.708
-0.707
-0.708
-0.697
-0.694
-0.701
-0.703
-0.691
-0.685
-0.692
-0.695
-0.684
-0.663
-0.65
-0.638
-0.653
-0.671
-0.671
-0.667
-0.654
-0.669
-0.681
-0.675
-0.68
-0.674
-0.676
-0.685
-0.679
-0.673
-0.673
-0.677
-0.687
-0.683
-0.672
-0.673
-0.67
-0.664
-0.673
-0.675
-0.664
-0.66
-0.665
-0.664
-0.668
-0.662
-0.658
-0.65
-0.648
-0.672
-0.666
-0.652
-0.65
-0.656
-0.66
-0.652
-0.652
-0.655
-0.655
-0.646
-0.645
-0.648
-0.628
-0.616
-0.638
-0.661
-0.657
-0.639
-0.62
-0.624
-0.638
-0.654
-0.664
-0.661
-0.661
-0.643
-0.647
-0.654
-0.644
-0.65
-0.66
-0.662
-0.66
-0.662
-0.661
-0.671
-0.665
-0.641
-0.65
-0.656
-0.657
-0.66
-0.662
-0.668
-0.661
-0.664
-0.691
-0.72
-0.721
-0.706
-0.688
-0.692
-0.681
-0.642
-0.647
-0.665
-0.669
-0.668
-0.668
-0.668
-0.661
-0.662
-0.664
-0.675
-0.68
-0.653
-0.626
-0.655
-0.688
-0.678
-0.678
-0.677
-0.674
-0.677
-0.677
-0.672
-0.672
-0.668
-0.663
-0.676
-0.68
-0.684
-0.682
-0.68
-0.682
-0.67
-0.666
-0.678
-0.684
-0.68
-0.681
-0.677
-0.672
-0.674
-0.669
-0.677
-0.697
-0.692
-0.68
-0.684
-0.671
-0.663
-0.672
-0.67
-0.68
-0.684
-0.682
-0.683
-0.689
-0.702
-0.698
-0.694
-0.689
-0.684
-0.687
-0.673
-0.659
-0.668
-0.679
-0.675
-0.691
-0.707
-0.705
-0.691
-0.679
-0.678
-0.68
-0.703
-0.707
-0.701
-0.697
-0.679
-0.688
-0.695
-0.695
-0.705
-0.7
-0.69
-0.693
-0.675
-0.666
-0.68
-0.67
-0.67
-0.683
-0.696
-0.705
-0.703
-0.692
-0.669
-0.68
-0.693
-0.688
-0.691
-0.692
-0.698
-0.694
-0.684
-0.682
-0.685
-0.685
-0.688
-0.698
-0.697
-0.697
-0.698
-0.689
-0.676
-0.661
-0.659
-0.657
-0.658
-0.672
-0.668
-0.668
-0.678
-0.651
-0.64
-0.662
-0.665
-0.659
-0.667
-0.674
-0.628
-0.613
-0.656
-0.668
-0.682
-0.686
-0.661
-0.658
-0.656
-0.661
-0.677
-0.667
-0.66
-0.672
-0.676
-0.671
-0.67
-0.662
-0.659
-0.677
-0.685
-0.686
-0.683
-0.663
-0.663
-0.67
-0.657
-0.649
-0.652
-0.665
-0.688
-0.69
-0.678
-0.679
-0.672
-0.673
-0.675
-0.661
-0.658
-0.676
-0.711
-0.72
-0.701
-0.692
-0.7
-0.71
-0.708
-0.695
-0.696
-0.719
-0.727
-0.725
-0.735
-0.74
-0.739
-0.74
-0.736
-0.723
-0.714
-0.713
-0.727
-0.754
-0.765
-0.764
-0.773
-0.765
-0.764
-0.766
-0.74
-0.742
-0.755
-0.761
-0.772
-0.753
-0.731
-0.708
-0.691
-0.707
-0.715
-0.695
-0.677
-0.686
-0.695
-0.688
-0.696
-0.695
-0.691
-0.694
-0.677
-0.663
-0.685
-0.706
-0.702
-0.712
-0.709
-0.694
-0.698
-0.696
-0.687
-0.69
-0.704
-0.703
-0.696
-0.689
-0.696
-0.705
-0.705
-0.722
-0.718
-0.703
-0.716
-0.711
-0.704
-0.696
-0.674
-0.688
-0.704
-0.715
-0.724
-0.711
-0.715
-0.729
-0.709
-0.695
-0.692
-0.687
-0.693
-0.7
-0.707
-0.705
-0.706
-0.705
-0.711
-0.708
-0.688
-0.701
-0.713
-0.715
-0.725
-0.72
-0.716
-0.721
-0.717
-0.71
-0.713
-0.721
-0.714
-0.713
-0.711
-0.689
-0.683
-0.693
-0.722
-0.729
-0.707
-0.722
-0.72
-0.705
-0.714
-0.715
-0.726
-0.727
-0.719
-0.713
-0.714
-0.713
-0.712
-0.711
-0.705
-0.711
-0.708
-0.715
-0.723
-0.722
-0.71
-0.701
-0.717
-0.715
-0.712
-0.717
-0.716
-0.723
-0.732
-0.722
-0.709
-0.694
-0.694
-0.695
-0.695
-0.717
-0.72
-0.721
-0.71
-0.698
-0.697
-0.697
-0.704
-0.705
-0.715
-0.724
-0.722
-0.706
-0.69
-0.688
-0.682
-0.708
-0.739
-0.729
-0.715
-0.717
-0.721
-0.714
-0.713
-0.713
-0.71
-0.704
-0.703
-0.703
-0.711
-0.727
-0.731
-0.734
-0.731
-0.718
-0.693
-0.689
-0.716
-0.729
-0.732
-0.737
-0.723
-0.693
-0.7
-0.749
-0.777
-0.808
-0.828
-0.827
-0.853
-0.86
-0.853
-0.844
-0.853
-0.856
-0.835
-0.809
-0.781
-0.751
-0.73
-0.727
-0.724
-0.735
-0.752
-0.768
-0.757
-0.741
-0.76
-0.778
-0.792
-0.82
-0.843
-0.857
-0.88
-0.915
-0.96
-1
-1.025
-1.077
-1.136
-1.202
-1.26
-1.312
-1.393
-1.462
-1.518
-1.531
-1.518
-1.496
-1.433
-1.376
-1.312
-1.26
-1.238
-1.163
-1.036
-0.921
-0.789
-0.615
-0.496
-0.418
-0.338
-0.18
0.012
0.126
0.229
0.358
0.444
0.491
0.544
0.555
0.554
0.546
0.581
0.64
0.63
0.617
0.612
0.576
0.526
0.462
0.398
0.376
0.329
0.245
0.183
0.139
0.106
0.068
0.018
-0.048
-0.086
-0.13
-0.213
-0.261
-0.284
-0.292
-0.285
-0.304
-0.326
-0.327
-0.349
-0.389
-0.408
-0.417
-0.404
-0.39
-0.395
-0.401
-0.422
-0.463
-0.499
-0.52
-0.533
-0.542
-0.569
-0.58
-0.574
-0.612
-0.633
-0.628
-0.646
-0.668
-0.682
-0.649
-0.629
-0.649
-0.654
-0.67
-0.674
-0.662
-0.66
-0.665
-0.67
-0.671
-0.675
-0.676
-0.675
-0.684
-0.683
-0.677
-0.682
-0.686
-0.692
-0.686
-0.688
-0.695
-0.695
-0.688
-0.681
-0.685
-0.691
-0.699
-0.678
-0.661
-0.694
-0.712
-0.717
-0.719
-0.709
-0.707
-0.695
-0.692
-0.699
-0.701
-0.706
-0.711
-0.71
-0.688
-0.688
-0.7
-0.71
-0.723
-0.719
-0.716
-0.704
-0.691
-0.689
-0.695
-0.712
-0.721
-0.712
-0.698
-0.678
-0.685
-0.696
-0.703
-0.715
-0.693
-0.685
-0.694
-0.714
-0.745
-0.743
-0.722
-0.72
-0.724
-0.712
-0.708
-0.71
-0.707
-0.701
-0.697
-0.702
-0.708
-0.709
-0.708
-0.71
-0.712
-0.709
-0.719
-0.729
-0.741
-0.733
-0.714
-0.696
-0.689
-0.688
-0.691
-0.729
-0.72
-0.702
-0.712
-0.699
-0.685
-0.705
-0.728
-0.723
-0.713
-0.702
-0.708
-0.706
-0.689
-0.692
-0.701
-0.709
-0.711
-0.706
-0.712
-0.717
-0.712
-0.711
-0.696
-0.693
-0.692
-0.669
-0.679
-0.693
-0.685
-0.69
-0.699
-0.704
-0.713
-0.718
-0.705
-0.7
-0.69
-0.674
-0.682
-0.691
-0.681
-0.676
-0.691
-0.698
-0.703
-0.699
-0.687
-0.688
-0.691
-0.693
-0.698
-0.697
-0.693
-0.7
-0.689
-0.676
-0.688
-0.694
-0.692
-0.688
-0.685
-0.685
-0.675
-0.672
-0.688
-0.677
-0.684
-0.7
-0.705
-0.709
-0.681
-0.676
-0.681
-0.686
-0.684
-0.67
-0.672
-0.676
-0.687
-0.684
-0.679
-0.673
-0.655
-0.658
-0.674
-0.686
-0.694
-0.697
-0.69
-0.674
-0.664
-0.665
-0.656
-0.651
-0.657
-0.658
-0.665
-0.676
-0.686
-0.686
-0.678
-0.668
-0.65
-0.644
-0.661
-0.678
-0.675
-0.673
-0.673
-0.665
-0.658
-0.648
-0.661
-0.66
-0.646
-0.638
-0.642
-0.661
-0.66
-0.65
-0.646
-0.648
-0.661
-0.664
-0.646
-0.656
-0.661
-0.663
-0.651
-0.635
-0.649
-0.645
-0.64
-0.639
-0.637
-0.646
-0.639
-0.626
-0.636
-0.647
-0.649
-0.639
-0.628
-0.631
-0.611
-0.607
-0.625
-0.629
-0.629
-0.624
-0.625
-0.629
-0.627
-0.628
-0.627
-0.623
-0.625
-0.623
-0.623
-0.633
-0.645
-0.646
-0.642
-0.638
-0.646
-0.64
-0.62
-0.616
-0.627
-0.652
-0.648
-0.648
-0.645
-0.625
-0.609
-0.588
-0.608
-0.642
-0.656
-0.652
-0.635
-0.633
-0.637
-0.632
-0.632
-0.643
-0.642
-0.617
-0.615
-0.63
-0.633
-0.633
-0.639
-0.637
-0.629
-0.631
-0.643
-0.644
-0.643
-0.651
-0.644
-0.64
-0.636
-0.63
-0.651
-0.655
-0.645
-0.639
-0.63
-0.646
-0.663
-0.669
-0.653
-0.633
-0.625
-0.607
-0.621
-0.64
-0.637
-0.638
-0.642
-0.644
-0.642
-0.634
-0.647
-0.656
-0.647
-0.658
-0.655
-0.641
-0.646
-0.631
-0.609
-0.623
-0.636
-0.645
-0.651
-0.64
-0.656
-0.67
-0.668
-0.653
-0.645
-0.638
-0.626
-0.649
-0.657
-0.646
-0.634
-0.631
-0.632
-0.617
-0.617
-0.642
-0.661
-0.663
-0.669
-0.661
-0.653
-0.657
-0.666
-0.651
-0.604
-0.602
-0.64
-0.664
-0.661
-0.658
-0.66
-0.654
-0.645
-0.643
-0.64
-0.627
-0.638
-0.657
-0.667
-0.651
-0.63
-0.636
-0.637
-0.647
-0.638
-0.624
-0.635
-0.647
-0.65
-0.645
-0.643
-0.641
-0.663
-0.665
-0.649
-0.661
-0.655
-0.652
-0.648
-0.64
-0.648
-0.662
-0.673
-0.67
-0.654
-0.645
-0.653
-0.66
-0.663
-0.655
-0.65
-0.652
-0.648
-0.644
-0.651
-0.645
-0.632
-0.629
-0.637
-0.654
-0.641
-0.637
-0.641
-0.632
-0.623
-0.622
-0.633
-0.619
-0.619
-0.632
-0.63
-0.637
-0.645
-0.643
-0.643
-0.641
-0.634
-0.638
-0.625
-0.623
-0.631
-0.622
-0.636
-0.641
-0.647
-0.646
-0.644
-0.636
-0.618
-0.616
-0.619
-0.63
-0.629
-0.63
-0.65
-0.671
-0.673
-0.66
-0.636
-0.626
-0.629
-0.628
-0.64
-0.65
-0.649
-0.643
-0.642
-0.644
-0.651
-0.656
-0.645
-0.651
-0.665
-0.678
-0.691
-0.68
-0.661
-0.666
-0.689
-0.684
-0.686
-0.702
-0.716
-0.723
-0.683
-0.652
-0.669
-0.693
-0.702
-0.711
-0.731
-0.73
-0.711
-0.716
-0.741
-0.75
-0.733
-0.714
-0.712
-0.722
-0.724
-0.734
-0.752
-0.744
-0.739
-0.743
-0.732
-0.717
-0.682
-0.663
-0.674
-0.685
-0.697
-0.696
-0.695
-0.685
-0.667
-0.658
-0.654
-0.643
-0.639
-0.65
-0.667
-0.67
-0.679
-0.698
-0.697
-0.699
-0.692
-0.691
-0.691
-0.675
-0.657
-0.648
-0.667
-0.689
-0.706
-0.711
-0.703
-0.696
-0.689
-0.683
-0.689
-0.689
-0.686
-0.691
-0.696
-0.695
-0.681
-0.683
-0.695
-0.688
-0.675
-0.664
-0.68
-0.715
-0.706
-0.681
-0.682
-0.688
-0.71
-0.716
-0.706
-0.703
-0.69
-0.688
-0.697
-0.708
-0.701
-0.683
-0.675
-0.675
-0.674
-0.68
-0.691
-0.691
-0.694
-0.677
-0.669
-0.673
-0.675
-0.668
-0.66
-0.666
-0.67
-0.671
-0.672
-0.675
-0.676
-0.691
-0.693
-0.682
-0.669
-0.642
-0.624
-0.624
-0.667
-0.719
-0.725
-0.702
-0.686
-0.698
-0.697
-0.66
-0.655
-0.672
-0.662
-0.65
-0.648
-0.658
-0.674
-0.669
-0.667
-0.68
-0.684
-0.682
-0.679
-0.678
-0.681
-0.667
-0.652
-0.657
-0.661
-0.657
-0.661
-0.67
-0.684
-0.694
-0.674
-0.672
-0.681
-0.675
-0.672
-0.678
-0.675
-0.663
-0.669
-0.675
-0.675
-0.67
-0.669
-0.647
-0.642
-0.651
-0.652
-0.68
-0.695
-0.706
-0.69
-0.664
-0.677
-0.684
-0.675
-0.675
-0.676
-0.669
-0.669
-0.672
-0.679
-0.677
-0.672
-0.673
-0.674
-0.68
-0.69
-0.717
-0.745
-0.774
-0.786
-0.785
-0.802
-0.806
-0.806
-0.807
-0.792
-0.781
-0.765
-0.735
-0.71
-0.693
-0.663
-0.659
-0.683
-0.689
-0.694
-0.691
-0.681
-0.695
-0.704
-0.712
-0.733
-0.746
-0.762
-0.797
-0.835
-0.872
-0.904
-0.926
-0.954
-1.018
-1.118
-1.2
-1.262
-1.316
-1.373
-1.431
-1.45
-1.454
-1.454
-1.399
-1.341
-1.294
-1.251
-1.226
-1.13
-0.987
-0.867
-0.748
-0.584
-0.451
-0.398
-0.316
-0.138
0.054
0.196
0.309
0.397
0.455
0.489
0.528
0.553
0.558
0.546
0.564
0.628
0.64
0.625
0.619
0.575
0.532
0.484
0.409
0.346
0.294
0.225
0.165
0.148
0.12
0.089
0.029
-0.044
-0.079
-0.137
-0.194
-0.229
-0.252
-0.268
-0.28
-0.279
-0.291
-0.321
-0.349
-0.346
-0.343
-0.354
-0.353
-0.365
-0.402
-0.425
-0.42
-0.439
-0.449
-0.462
-0.503
-0.53
-0.542
-0.542
-0.552
-0.569
-0.583
-0.589
-0.604
-0.602
-0.602
-0.613
-0.601
-0.628
-0.629
-0.6
-0.608
-0.609
-0.603
-0.605
-0.615
-0.629
-0.643
-0.625
-0.587
-0.585
-0.606
-0.617
-0.631
-0.646
-0.65
-0.663
-0.653
-0.646
-0.648
-0.641
-0.652
-0.66
-0.656
-0.646
-0.639
-0.647
-0.646
-0.645
-0.624
-0.61
-0.634
-0.651
-0.675
-0.67
-0.657
-0.675
-0.665
-0.637
-0.628
-0.618
-0.628
-0.65
-0.646
-0.65
-0.649
-0.644
-0.647
-0.643
-0.643
-0.643
-0.649
-0.653
-0.657
-0.657
-0.652
-0.661
-0.659
-0.647
-0.639
-0.648
-0.649
-0.631
-0.631
-0.622
-0.613
-0.623
-0.634
-0.646
-0.652
-0.664
-0.659
-0.646
-0.646
-0.64
-0.633
-0.635
-0.644
-0.649
-0.655
-0.651
-0.653
-0.657
-0.651
-0.659
-0.65
-0.652
-0.651
-0.63
-0.636
-0.65
-0.647
-0.642
-0.652
-0.648
-0.634
-0.631
-0.635
-0.639
-0.649
-0.664
-0.663
-0.667
-0.66
-0.64
-0.636
-0.639
-0.648
-0.653
-0.622
-0.604
-0.636
-0.645
-0.642
-0.647
-0.643
-0.637
-0.63
-0.629
-0.629
-0.624
-0.637
-0.647
-0.649
-0.65
-0.647
-0.655
-0.656
-0.643
-0.625
-0.631
-0.638
-0.631
-0.632
-0.63
-0.632
-0.64
-0.648
-0.644
-0.645
-0.639
-0.638
-0.632
-0.623
-0.647
-0.635
-0.611
-0.617
-0.627
-0.628
-0.626
-0.633
-0.634
-0.625
-0.608
-0.623
-0.635
-0.617
-0.602
-0.596
-0.608
-0.619
-0.624
-0.623
-0.602
-0.602
-0.631
-0.644
-0.628
-0.623
-0.621
-0.612
-0.614
-0.618
-0.619
-0.623
-0.628
-0.625
-0.623
-0.625
-0.613
-0.605
-0.613
-0.615
-0.619
-0.62
-0.603
-0.593
-0.597
-0.606
-0.614
-0.614
-0.614
-0.615
-0.61
-0.605
-0.607
-0.615
-0.614
-0.6
-0.577
-0.582
-0.592
-0.582
-0.59
-0.609
-0.598
-0.563
-0.554
-0.567
-0.582
-0.596
-0.604
-0.603
-0.584
-0.571
-0.571
-0.578
-0.593
-0.597
-0.587
-0.577
-0.577
-0.571
-0.566
-0.561
-0.559
-0.57
-0.579
-0.581
-0.572
-0.575
-0.577
-0.574
-0.577
-0.577
-0.581
-0.572
-0.564
-0.562
-0.539
-0.548
-0.592
-0.57
-0.541
-0.55
-0.549
-0.551
-0.558
-0.555
-0.541
-0.551
-0.548
-0.532
-0.537
-0.539
-0.549
-0.553
-0.553
-0.562
-0.568
-0.57
-0.58
-0.588
-0.587
-0.555
-0.525
-0.541
-0.553
-0.559
-0.56
-0.565
-0.564
-0.539
-0.524
-0.517
-0.542
-0.574
-0.579
-0.565
-0.548
-0.544
-0.54
-0.546
-0.558
-0.568
-0.574
-0.578
-0.572
-0.56
-0.558
-0.566
-0.579
-0.582
-0.581
-0.579
-0.57
-0.564
-0.554
-0.555
-0.558
-0.549
-0.568
-0.58
-0.562
-0.555
-0.57
-0.581
-0.581
-0.577
-0.582
-0.59
-0.587
-0.586
-0.582
-0.577
-0.583
-0.587
-0.58
-0.574
-0.575
-0.58
-0.578
-0.577
-0.572
-0.564
-0.566
-0.575
-0.583
-0.585
-0.587
-0.598
-0.597
-0.577
-0.573
-0.565
-0.55
-0.553
-0.553
-0.564
-0.576
-0.58
-0.588
-0.583
-0.579
-0.595
-0.609
-0.605
-0.6
-0.604
-0.608
-0.61
-0.581
-0.561
-0.57
-0.566
-0.554
-0.563
-0.581
-0.588
-0.583
-0.57
-0.565
-0.574
-0.567
-0.561
-0.58
-0.595
-0.599
-0.593
-0.591
-0.581
-0.58
-0.59
-0.586
-0.579
-0.572
-0.564
-0.568
-0.584
-0.587
-0.591
-0.596
-0.605
-0.599
-0.586
-0.576
-0.581
-0.592
-0.589
-0.608
-0.609
-0.588
-0.57
-0.561
-0.575
-0.592
-0.593
-0.587
-0.589
-0.585
-0.576
-0.58
-0.589
-0.599
-0.601
-0.576
-0.578
-0.587
-0.574
-0.566
-0.552
-0.554
-0.553
-0.552
-0.568
-0.572
-0.569
-0.562
-0.557
-0.563
-0.577
-0.582
-0.583
-0.594
-0.594
-0.577
-0.575
-0.598
-0.6
-0.582
-0.569
-0.57
-0.597
-0.6
-0.591
-0.586
-0.579
-0.581
-0.574
-0.566
-0.573
-0.58
-0.577
-0.578
-0.584
-0.572
-0.557
-0.572
-0.595
-0.595
-0.589
-0.587
-0.58
-0.584
-0.601
-0.602
-0.598
-0.602
-0.621
-0.631
-0.596
-0.593
-0.62
-0.627
-0.63
-0.625
-0.623
-0.628
-0.617
-0.62
-0.653
-0.651
-0.631
-0.637
-0.652
-0.643
-0.633
-0.634
-0.642
-0.653
-0.642
-0.642
-0.654
-0.657
-0.658
-0.664
-0.675
-0.688
-0.682
-0.683
-0.696
-0.686
-0.691
-0.702
-0.691
-0.677
-0.666
-0.653
-0.642
-0.63
-0.625
-0.625
-0.62
-0.612
-0.604
-0.605
-0.612
-0.622
-0.62
-0.614
-0.62
-0.617
-0.605
-0.596
-0.606
-0.623
-0.625
-0.617
-0.61
-0.612
-0.625
-0.644
-0.652
-0.629
-0.602
-0.607
-0.616
-0.617
-0.613
-0.603
-0.6
-0.62
-0.636
-0.633
-0.638
-0.632
-0.625
-0.625
-0.627
-0.641
-0.648
-0.651
-0.637
-0.607
-0.609
-0.616
-0.616
-0.622
-0.626
-0.63
-0.631
-0.628
-0.631
-0.637
-0.641
-0.638
-0.631
-0.633
-0.638
-0.628
-0.618
-0.618
-0.615
-0.611
-0.614
-0.621
-0.631
-0.625
-0.612
-0.607
-0.594
-0.606
-0.636
-0.639
-0.635
-0.637
-0.637
-0.638
-0.644
-0.636
-0.617
-0.596
-0.603
-0.638
-0.626
-0.613
-0.62
-0.616
-0.618
-0.606
-0.586
-0.582
-0.621
-0.652
-0.666
-0.652
-0.597
-0.599
-0.61
-0.604
-0.603
-0.604
-0.622
-0.621
-0.613
-0.61
-0.609
-0.611
-0.61
-0.603
-0.588
-0.574
-0.579
-0.594
-0.587
-0.585
-0.598
-0.602
-0.609
-0.614
-0.62
-0.617
-0.605
-0.605
-0.618
-0.631
-0.625
-0.626
-0.634
-0.629
-0.626
-0.616
-0.605
-0.608
-0.61
-0.612
-0.608
-0.607
-0.603
-0.588
-0.58
-0.593
-0.615
-0.628
-0.626
-0.616
-0.624
-0.647
-0.646
-0.634
-0.631
-0.64
-0.645
-0.634
-0.641
-0.645
-0.666
-0.702
-0.724
-0.738
-0.731
-0.718
-0.716
-0.71
-0.692
-0.676
-0.653
-0.638
-0.617
-0.596
-0.583
-0.581
-0.615
-0.626
-0.61
-0.615
-0.628
-0.631
-0.645
-0.679
-0.701
-0.709
-0.736
-0.777
-0.819
-0.855
-0.871
-0.882
-0.944
-1.021
-1.068
-1.15
-1.232
-1.272
-1.33
-1.372
-1.373
-1.377
-1.343
-1.298
-1.234
-1.159
-1.122
-1.045
-0.912
-0.772
-0.639
-0.5
-0.381
-0.31
-0.226
-0.032
0.151
0.265
0.37
0.46
0.524
0.544
0.582
0.623
0.627
0.614
0.65
0.706
0.712
0.74
0.75
0.705
0.638
0.562
0.512
0.472
0.406
0.317
0.241
0.208
0.183
0.181
0.137
0.049
-0.004
-0.08
-0.138
-0.145
-0.158
-0.183
-0.196
-0.195
-0.214
-0.244
-0.275
-0.29
-0.287
-0.287
-0.288
-0.296
-0.319
-0.338
-0.35
-0.371
-0.392
-0.397
-0.412
-0.449
-0.473
-0.489
-0.519
-0.516
-0.49
-0.503
-0.531
-0.538
-0.525
-0.521
-0.538
-0.533
-0.515
-0.528
-0.552
-0.566
-0.556
-0.551
-0.548
-0.559
-0.585
-0.576
-0.57
-0.556
-0.544
-0.558
-0.559
-0.561
-0.567
-0.565
-0.561
-0.557
-0.569
-0.574
-0.576
-0.586
-0.593
-0.582
-0.572
-0.576
-0.567
-0.568
-0.574
-0.578
-0.588
-0.583
-0.581
-0.58
-0.584
-0.589
-0.579
-0.581
-0.586
-0.58
-0.584
-0.601
-0.614
-0.607
-0.589
-0.564
-0.555
-0.57
-0.575
-0.575
-0.567
-0.566
-0.578
-0.588
-0.6
-0.6
-0.604
-0.605
-0.6
-0.609
-0.61
-0.587
-0.553
-0.554
-0.585
-0.591
-0.581
-0.59
-0.594
-0.598
-0.604
-0.585
-0.575
-0.577
-0.579
-0.605
-0.613
-0.607
-0.603
-0.593
-0.588
-0.566
-0.555
-0.553
-0.546
-0.552
-0.565
-0.587
-0.599
-0.599
-0.598
-0.598
-0.598
-0.606
-0.618
-0.602
-0.586
-0.575
-0.56
-0.576
-0.602
-0.61
-0.586
-0.575
-0.606
-0.615
-0.6
-0.603
-0.594
-0.587
-0.576
-0.562
-0.574
-0.574
-0.562
-0.568
-0.575
-0.58
-0.592
-0.596
-0.601
-0.602
-0.584
-0.573
-0.586
-0.6
-0.607
-0.593
-0.575
-0.57
-0.564
-0.569
-0.574
-0.568
-0.574
-0.578
-0.584
-0.587
-0.555
-0.534
-0.548
-0.571
-0.591
-0.591
-0.587
-0.586
-0.58
-0.576
-0.562
-0.557
-0.554
-0.558
-0.564
-0.551
-0.555
-0.567
-0.582
-0.587
-0.579
-0.589
-0.601
-0.592
-0.574
-0.565
-0.548
-0.552
-0.573
-0.579
-0.578
-0.572
-0.555
-0.541
-0.562
-0.581
-0.575
-0.569
-0.566
-0.566
-0.566
-0.565
-0.564
-0.572
-0.569
-0.569
-0.575
-0.573
-0.574
-0.584
-0.602
-0.59
-0.574
-0.555
-0.545
-0.559
-0.562
-0.568
-0.564
-0.557
-0.54
-0.523
-0.537
-0.553
-0.565
-0.578
-0.559
-0.533
-0.54
-0.548
-0.558
-0.555
-0.556
-0.561
-0.551
-0.565
-0.543
-0.514
-0.538
-0.554
-0.561
-0.565
-0.566
-0.569
-0.557
-0.541
-0.529
-0.536
-0.524
-0.505
-0.514
-0.518
-0.517
-0.506
-0.515
-0.532
-0.547
-0.56
-0.553
-0.54
-0.52
-0.505
-0.501
-0.516
-0.524
-0.531
-0.548
-0.523
-0.492
-0.498
-0.505
-0.505
-0.504
-0.508
-0.524
-0.527
-0.519
-0.512
-0.51
-0.523
-0.519
-0.512
-0.509
-0.497
-0.491
-0.492
-0.5
-0.497
-0.481
-0.477
-0.487
-0.499
-0.499
-0.505
-0.516
-0.523
-0.528
-0.523
-0.51
-0.5
-0.49
-0.491
-0.516
-0.529
-0.528
-0.537
-0.533
-0.516
-0.505
-0.513
-0.515
-0.5
-0.491
-0.506
-0.542
-0.535
-0.498
-0.485
-0.486
-0.5
-0.517
-0.516
-0.503
-0.509
-0.525
-0.528
-0.52
-0.516
-0.517
-0.511
-0.525
-0.541
-0.536
-0.521
-0.518
-0.521
-0.519
-0.506
-0.496
-0.506
-0.495
-0.49
-0.508
-0.519
-0.515
-0.511
-0.537
-0.541
-0.516
-0.5
-0.505
-0.519
-0.505
-0.497
-0.511
-0.506
-0.501
-0.511
-0.511
-0.502
-0.478
-0.467
-0.491
-0.502
-0.503
-0.503
-0.52
-0.531
-0.508
-0.502
-0.51
-0.518
-0.521
-0.525
-0.527
-0.5
-0.483
-0.497
-0.52
-0.517
-0.501
-0.503
-0.484
-0.484
-0.497
-0.498
-0.512
-0.518
-0.515
-0.508
-0.505
-0.502
-0.513
-0.507
-0.501
-0.501
-0.486
-0.5
-0.513
-0.523
-0.498
-0.471
-0.491
-0.502
-0.507
-0.512
-0.52
-0.507
-0.492
-0.509
-0.529
-0.53
-0.518
-0.516
-0.521
-0.515
-0.511
-0.507
-0.496
-0.499
-0.52
-0.529
-0.511
-0.507
-0.509
-0.508
-0.509
-0.506
-0.511
-0.512
-0.512
-0.503
-0.495
-0.495
-0.503
-0.5
-0.49
-0.501
-0.51
-0.51
-0.482
-0.471
-0.479
-0.483
-0.511
-0.517
-0.503
-0.494
-0.498
-0.49
-0.485
-0.494
-0.499
-0.509
-0.513
-0.511
-0.503
-0.501
-0.512
-0.514
-0.482
-0.469
-0.489
-0.488
-0.489
-0.494
-0.468
-0.443
-0.452
-0.471
-0.507
-0.534
-0.521
-0.499
-0.503
-0.502
-0.497
-0.503
-0.471
-0.466
-0.492
-0.494
-0.503
-0.513
-0.512
-0.524
-0.534
-0.516
-0.501
-0.502
-0.509
-0.514
-0.515
-0.524
-0.533
-0.55
-0.556
-0.549
-0.556
-0.559
-0.545
-0.531
-0.54
-0.55
-0.533
-0.524
-0.543
-0.578
-0.59
-0.579
-0.577
-0.582
-0.592
-0.591
-0.578
-0.565
-0.572
-0.575
-0.562
-0.562
-0.569
-0.57
-0.565
-0.55
-0.537
-0.531
-0.529
-0.53
-0.513
-0.503
-0.507
-0.508
-0.509
-0.511
-0.523
-0.527
-0.522
-0.526
-0.525
-0.519
-0.521
-0.521
-0.521
-0.525
-0.529
-0.527
-0.52
-0.515
-0.52
-0.537
-0.545
-0.541
-0.536
-0.532
-0.531
-0.525
-0.518
-0.533
-0.55
-0.542
-0.534
-0.543
-0.521
-0.493
-0.491
-0.5
-0.526
-0.528
-0.521
-0.509
-0.515
-0.549
-0.557
-0.537
-0.534
-0.541
-0.532
-0.532
-0.524
-0.529
-0.541
-0.54
-0.545
-0.553
-0.546
-0.534
-0.536
-0.553
-0.572
-0.567
-0.575
-0.567
-0.525
-0.504
-0.535
-0.552
-0.516
-0.515
-0.522
-0.526
-0.539
-0.541
-0.527
-0.508
-0.525
-0.526
-0.51
-0.516
-0.521
-0.524
-0.521
-0.529
-0.536
-0.519
-0.512
-0.519
-0.522
-0.528
-0.541
-0.546
-0.532
-0.531
-0.53
-0.525
-0.536
-0.549
-0.55
-0.541
-0.548
-0.543
-0.54
-0.546
-0.553
-0.545
-0.53
-0.542
-0.53
-0.514
-0.518
-0.521
-0.525
-0.526
-0.52
-0.523
-0.531
-0.526
-0.519
-0.519
-0.514
-0.514
-0.517
-0.531
-0.542
-0.522
-0.52
-0.533
-0.533
-0.532
-0.528
-0.524
-0.522
-0.527
-0.532
-0.532
-0.525
-0.514
-0.516
-0.525
-0.526
-0.528
-0.535
-0.531
-0.54
-0.548
-0.536
-0.528
-0.549
-0.566
-0.569
-0.573
-0.542
-0.568
-0.614
-0.642
-0.657
-0.635
-0.641
-0.647
-0.665
-0.639
-0.611
-0.632
-0.635
-0.615
-0.571
-0.527
-0.501
-0.499
-0.512
-0.523
-0.518
-0.523
-0.533
-0.55
-0.58
-0.605
-0.626
-0.637
-0.645
-0.647
-0.655
-0.687
-0.726
-0.793
-0.852
-0.869
-0.913
-0.978
-1.034
-1.083
-1.12
-1.147
-1.152
-1.163
-1.15
-1.1
-1.065
-1.012
-0.961
-0.893
-0.779
-0.631
-0.501
-0.363
-0.22
-0.11
-0.02
0.111
0.325
0.486
0.621
0.755
0.831
0.834
0.832
0.851
0.866
0.88
0.915
0.995
1.028
1.02
1.016
1.011
0.964
0.877
0.809
0.715
0.613
0.522
0.447
0.405
0.374
0.335
0.27
0.21
0.154
0.082
-0.002
-0.058
-0.077
-0.081
-0.093
-0.118
-0.127
-0.133
-0.161
-0.216
-0.238
-0.237
-0.222
-0.203
-0.215
-0.246
-0.29
-0.301
-0.316
-0.344
-0.359
-0.361
-0.371
-0.41
-0.436
-0.435
-0.427
-0.453
-0.478
-0.486
-0.499
-0.498
-0.47
-0.461
-0.475
-0.481
-0.481
-0.492
-0.509
-0.516
-0.509
-0.49
-0.498
-0.511
-0.518
-0.53
-0.534
-0.507
-0.478
-0.507
-0.525
-0.521
-0.514
-0.507
-0.522
-0.527
-0.531
-0.527
-0.517
-0.526
-0.532
-0.537
-0.524
-0.506
-0.515
-0.527
-0.54
-0.537
-0.525
-0.518
-0.521
-0.53
-0.541
-0.557
-0.561
-0.552
-0.557
-0.566
-0.562
-0.542
-0.529
-0.546
-0.567
-0.575
-0.56
-0.552
-0.537
-0.521
-0.535
-0.551
-0.559
-0.556
-0.55
-0.552
-0.553
-0.542
-0.545
-0.566
-0.581
-0.585
-0.575
-0.57
-0.575
-0.569
-0.55
-0.552
-0.564
-0.56
-0.557
-0.556
-0.558
-0.556
-0.553
-0.552
-0.561
-0.573
-0.57
-0.567
-0.564
-0.564
-0.554
-0.531
-0.518
-0.555
-0.607
-0.59
-0.557
-0.582
-0.579
-0.552
-0.567
-0.58
-0.579
-0.556
-0.549
-0.562
-0.575
-0.578
-0.573
-0.572
-0.564
-0.562
-0.55
-0.538
-0.551
-0.553
-0.548
-0.562
-0.568
-0.565
-0.571
-0.57
-0.563
-0.563
-0.57
-0.58
-0.584
-0.58
-0.571
-0.556
-0.552
-0.57
-0.578
-0.579
-0.572
-0.578
-0.585
-0.579
-0.567
-0.556
-0.571
-0.554
-0.539
-0.562
-0.572
-0.583
-0.575
-0.556
-0.566
-0.577
-0.58
-0.576
-0.564
-0.563
-0.569
-0.578
-0.581
-0.58
-0.579
-0.573
-0.568
-0.568
-0.574
-0.582
-0.582
-0.577
-0.578
-0.562
-0.561
-0.573
-0.571
-0.576
-0.581
-0.596
-0.594
-0.587
-0.588
-0.572
-0.573
-0.58
-0.586
-0.595
-0.595
-0.586
-0.579
-0.568
-0.579
-0.595
-0.586
-0.583
-0.578
-0.581
-0.571
-0.584
-0.61
-0.585
-0.58
-0.583
-0.564
-0.567
-0.571
-0.575
-0.582
-0.585
-0.577
-0.578
-0.581
-0.576
-0.581
-0.593
-0.595
-0.578
-0.587
-0.586
-0.572
-0.556
-0.541
-0.544
-0.545
-0.56
-0.565
-0.561
-0.555
-0.539
-0.549
-0.564
-0.562
-0.552
-0.542
-0.546
-0.543
-0.531
-0.529
-0.532
-0.541
-0.538
-0.525
-0.54
-0.539
-0.53
-0.546
-0.546
-0.525
-0.517
-0.492
-0.453
-0.46
-0.49
-0.502
-0.493
-0.487
-0.496
-0.495
-0.483
-0.486
-0.508
-0.525
-0.525
-0.51
-0.501
-0.508
-0.508
-0.5
-0.49
-0.483
-0.466
-0.459
-0.472
-0.492
-0.501
-0.483
-0.485
-0.48
-0.475
-0.49
-0.484
-0.476
-0.471
-0.446
-0.429
-0.452
-0.458
-0.456
-0.477
-0.482
-0.47
-0.468
-0.455
-0.451
-0.467
-0.479
-0.485
-0.48
-0.476
-0.482
-0.463
-0.441
-0.449
-0.451
-0.47
-0.49
-0.481
-0.477
-0.476
-0.482
-0.494
-0.464
-0.446
-0.456
-0.455
-0.46
-0.462
-0.462
-0.463
-0.478
-0.489
-0.486
-0.486
-0.469
-0.45
-0.465
-0.46
-0.442
-0.48
-0.495
-0.481
-0.502
-0.495
-0.462
-0.456
-0.453
-0.465
-0.485
-0.475
-0.449
-0.451
-0.47
-0.474
-0.465
-0.461
-0.469
-0.468
-0.451
-0.45
-0.469
-0.467
-0.473
-0.473
-0.446
-0.439
-0.46
-0.482
-0.478
-0.478
-0.485
-0.486
-0.494
-0.491
-0.486
-0.493
-0.482
-0.46
-0.45
-0.46
-0.469
-0.476
-0.486
-0.479
-0.466
-0.446
-0.426
-0.435
-0.465
-0.468
-0.466
-0.476
-0.477
-0.486
-0.488
-0.476
-0.476
-0.482
-0.485
-0.48
-0.486
-0.496
-0.487
-0.472
-0.451
-0.435
-0.446
-0.476
-0.498
-0.486
-0.46
-0.458
-0.477
-0.49
-0.499
-0.5
-0.495
-0.5
-0.503
-0.496
-0.505
-0.507
-0.494
-0.498
-0.496
-0.487
-0.486
-0.489
-0.498
-0.496
-0.495
-0.483
-0.452
-0.444
-0.439
-0.456
-0.493
-0.499
-0.489
-0.472
-0.465
-0.463
-0.455
-0.451
-0.463
-0.484
-0.465
-0.463
-0.48
-0.473
-0.464
-0.459
-0.464
-0.472
-0.477
-0.478
-0.487
-0.489
-0.486
-0.494
-0.5
-0.499
-0.495
-0.493
-0.492
-0.502
-0.517
-0.483
-0.454
-0.504
-0.53
-0.516
-0.495
-0.481
-0.493
-0.49
-0.502
-0.495
-0.457
-0.458
-0.486
-0.49
-0.483
-0.466
-0.468
-0.493
-0.491
-0.491
-0.491
-0.487
-0.494
-0.499
-0.496
-0.496
-0.489
-0.511
-0.529
-0.517
-0.53
-0.547
-0.551
-0.551
-0.546
-0.523
-0.533
-0.572
-0.562
-0.541
-0.554
-0.563
-0.547
-0.535
-0.538
-0.554
-0.563
-0.571
-0.565
-0.551
-0.566
-0.574
-0.577
-0.575
-0.556
-0.538
-0.533
-0.521
-0.509
-0.512
-0.515
-0.511
-0.514
-0.527
-0.519
-0.509
-0.499
-0.503
-0.513
-0.505
-0.509
-0.509
-0.507
-0.518
-0.531
-0.519
-0.503
-0.515
-0.514
-0.497
-0.501
-0.525
-0.515
-0.503
-0.499
-0.508
-0.531
-0.526
-0.518
-0.519
-0.522
-0.522
-0.52
-0.517
-0.514
-0.52
-0.523
-0.524
-0.52
-0.519
-0.516
-0.525
-0.547
-0.543
-0.52
-0.514
-0.527
-0.531
-0.524
-0.531
-0.519
-0.507
-0.519
-0.502
-0.503
-0.519
-0.519
-0.523
-0.493
-0.471
-0.481
-0.501
-0.519
-0.512
-0.501
-0.501
-0.518
-0.536
-0.525
-0.499
-0.498
-0.511
-0.509
-0.518
-0.513
-0.502
-0.521
-0.518
-0.502
-0.493
-0.487
-0.504
-0.52
-0.526
-0.529
-0.521
-0.515
-0.5
-0.503
-0.528
-0.529
-0.515
-0.514
-0.52
-0.514
-0.514
-0.513
-0.503
-0.499
-0.501
-0.502
-0.503
-0.505
-0.504
-0.508
-0.526
-0.531
-0.518
-0.525
-0.52
-0.522
-0.52
-0.505
-0.508
-0.508
-0.509
-0.505
-0.501
-0.501
-0.496
-0.494
-0.491
-0.479
-0.489
-0.507
-0.522
-0.53
-0.517
-0.513
-0.523
-0.519
-0.489
-0.486
-0.49
-0.489
-0.503
-0.504
-0.505
-0.512
-0.516
-0.523
-0.526
-0.53
-0.54
-0.529
-0.535
-0.533
-0.515
-0.529
-0.55
-0.577
-0.573
-0.582
-0.611
-0.611
-0.628
-0.634
-0.635
-0.639
-0.641
-0.634
-0.644
-0.656
-0.639
-0.632
-0.614
-0.582
-0.549
-0.534
-0.536
-0.545
-0.532
-0.52
-0.522
-0.522
-0.544
-0.581
-0.615
-0.613
-0.641
-0.676
-0.693
-0.746
-0.777
-0.804
-0.839
-0.849
-0.874
-0.944
-1.011
-1.06
-1.079
-1.069
-1.048
-1.048
-1.046
-1.008
-0.977
-0.932
-0.862
-0.76
-0.674
-0.56
-0.408
-0.265
-0.111
0.018
0.12
0.249
0.441
0.601
0.725
0.872
1.002
1.052
1.058
1.057
1.056
1.073
1.113
1.17
1.184
1.2
1.22
1.198
1.167
1.083
0.977
0.875
0.74
0.643
0.577
0.49
0.435
0.399
0.328
0.272
0.209
0.119
0.036
-0.015
-0.046
-0.076
-0.076
-0.104
-0.131
-0.135
-0.136
-0.132
-0.161
-0.184
-0.192
-0.188
-0.193
-0.202
-0.212
-0.248
-0.278
-0.285
-0.298
-0.324
-0.352
-0.388
-0.41
-0.414
-0.437
-0.455
-0.462
-0.48
-0.49
-0.497
-0.495
-0.474
-0.446
-0.436
-0.46
-0.507
-0.528
-0.502
-0.51
-0.507
-0.491
-0.506
-0.524
-0.525
-0.508
-0.507
-0.53
-0.541
-0.531
-0.521
-0.509
-0.508
-0.503
-0.495
-0.504
-0.509
-0.518
-0.519
-0.506
-0.511
-0.523
-0.524
-0.541
-0.535
-0.521
-0.522
-0.511
-0.53
-0.544
-0.553
-0.552
-0.526
-0.516
-0.517
-0.537
-0.539
-0.523
-0.53
-0.523
-0.528
-0.542
-0.532
-0.529
-0.525
-0.527
-0.54
-0.533
-0.525
-0.53
-0.548
-0.542
-0.551
-0.574
-0.553
-0.545
-0.541
-0.527
-0.524
-0.522
-0.515
-0.513
-0.519
-0.528
-0.537
-0.548
-0.561
-0.562
-0.561
-0.569
-0.578
-0.55
-0.524
-0.522
-0.542
-0.576
-0.572
-0.563
-0.542
-0.522
-0.555
-0.588
-0.587
-0.596
-0.588
-0.566
-0.572
-0.581
-0.589
-0.572
-0.557
-0.552
-0.548
-0.551
-0.568
-0.577
-0.567
-0.565
-0.562
-0.577
-0.582
-0.564
-0.564
-0.578
-0.589
-0.585
-0.562
-0.553
-0.572
-0.561
-0.556
-0.561
-0.552
-0.535
-0.511
-0.533
-0.561
-0.583
-0.582
-0.578
-0.58
-0.556
-0.57
-0.584
-0.574
-0.562
-0.565
-0.567
-0.561
-0.569
-0.56
-0.573
-0.595
-0.594
-0.581
-0.574
-0.576
-0.58
-0.592
-0.585
-0.564
-0.565
-0.572
-0.556
-0.552
-0.556
-0.559
-0.561
-0.573
-0.592
-0.582
-0.576
-0.57
-0.575
-0.586
-0.585
-0.59
-0.577
-0.575
-0.567
-0.56
-0.58
-0.603
-0.617
-0.61
-0.609
-0.61
-0.587
-0.579
-0.595
-0.604
-0.59
-0.569
-0.575
-0.598
-0.597
-0.58
-0.585
-0.592
-0.59
-0.582
-0.593
-0.601
-0.591
-0.594
-0.578
-0.574
-0.596
-0.582
-0.559
-0.557
-0.563
-0.574
-0.559
-0.556
-0.575
-0.585
-0.592
-0.571
-0.558
-0.568
-0.577
-0.59
-0.585
-0.572
-0.557
-0.551
-0.541
-0.544
-0.565
-0.589
-0.583
-0.532
-0.529
-0.542
-0.546
-0.55
-0.544
-0.539
-0.525
-0.517
-0.522
-0.518
-0.521
-0.528
-0.528
-0.534
-0.522
-0.497
-0.497
-0.5
-0.49
-0.49
-0.49
-0.487
-0.488
-0.489
-0.492
-0.496
-0.497
-0.485
-0.484
-0.487
-0.477
-0.473
-0.466
-0.456
-0.458
-0.469
-0.475
-0.469
-0.459
-0.461
-0.462
-0.456
-0.466
-0.469
-0.467
-0.469
-0.462
-0.443
-0.437
-0.432
-0.408
-0.408
-0.407
-0.429
-0.485
-0.477
-0.45
-0.455
-0.457
-0.448
-0.446
-0.454
-0.465
-0.452
-0.406
-0.397
-0.413
-0.452
-0.491
-0.478
-0.465
-0.456
-0.422
-0.409
-0.428
-0.44
-0.443
-0.438
-0.425
-0.419
-0.44
-0.452
-0.458
-0.453
-0.443
-0.446
-0.446
-0.455
-0.453
-0.454
-0.458
-0.452
-0.444
-0.448
-0.46
-0.453
-0.44
-0.432
-0.44
-0.441
-0.441
-0.445
-0.444
-0.456
-0.453
-0.457
-0.461
-0.458
-0.457
-0.429
-0.444
-0.468
-0.449
-0.454
-0.432
-0.41
-0.443
-0.442
-0.432
-0.435
-0.442
-0.432
-0.426
-0.444
-0.446
-0.441
-0.444
-0.457
-0.45
-0.449
-0.457
-0.456
-0.452
-0.447
-0.44
-0.44
-0.443
-0.434
-0.439
-0.446
-0.448
-0.443
-0.431
-0.427
-0.426
-0.441
-0.449
-0.442
-0.448
-0.453
-0.462
-0.451
-0.427
-0.423
-0.438
-0.448
-0.441
-0.465
-0.464
-0.451
-0.452
-0.461
-0.478
-0.458
-0.464
-0.48
-0.469
-0.463
-0.458
-0.477
-0.494
-0.464
-0.447
-0.465
-0.459
-0.455
-0.463
-0.457
-0.456
-0.458
-0.453
-0.446
-0.444
-0.449
-0.454
-0.433
-0.421
-0.435
-0.457
-0.456
-0.444
-0.458
-0.461
-0.46
-0.452
-0.441
-0.449
-0.436
-0.42
-0.396
-0.398
-0.424
-0.43
-0.423
-0.41
-0.415
-0.395
-0.365
-0.362
-0.386
-0.422
-0.449
-0.446
-0.439
-0.431
-0.431
-0.43
-0.429
-0.454
-0.465
-0.47
-0.454
-0.457
-0.463
-0.444
-0.445
-0.453
-0.426
-0.373
-0.371
-0.386
-0.398
-0.42
-0.436
-0.451
-0.451
-0.442
-0.438
-0.43
-0.434
-0.431
-0.424
-0.421
-0.406
-0.41
-0.422
-0.418
-0.412
-0.406
-0.4
-0.407
-0.422
-0.436
-0.453
-0.45
-0.448
-0.461
-0.458
-0.463
-0.455
-0.44
-0.444
-0.451
-0.482
-0.48
-0.457
-0.458
-0.457
-0.455
-0.449
-0.462
-0.47
-0.477
-0.502
-0.513
-0.499
-0.508
-0.516
-0.499
-0.513
-0.51
-0.506
-0.516
-0.519
-0.529
-0.538
-0.543
-0.518
-0.5
-0.493
-0.468
-0.456
-0.467
-0.477
-0.457
-0.428
-0.44
-0.453
-0.446
-0.439
-0.446
-0.472
-0.461
-0.445
-0.446
-0.451
-0.476
-0.469
-0.451
-0.447
-0.451
-0.459
-0.453
-0.462
-0.474
-0.47
-0.473
-0.479
-0.486
-0.478
-0.458
-0.453
-0.461
-0.474
-0.454
-0.46
-0.474
-0.461
-0.465
-0.458
-0.464
-0.47
-0.453
-0.449
-0.465
-0.484
-0.486
-0.483
-0.491
-0.502
-0.485
-0.459
-0.455
-0.452
-0.477
-0.502
-0.48
-0.47
-0.485
-0.484
-0.465
-0.456
-0.485
-0.503
-0.501
-0.514
-0.504
-0.498
-0.484
-0.459
-0.461
-0.47
-0.471
-0.451
-0.445
-0.466
-0.476
-0.469
-0.45
-0.447
-0.476
-0.475
-0.477
-0.48
-0.466
-0.494
-0.508
-0.488
-0.471
-0.469
-0.472
-0.473
-0.481
-0.481
-0.473
-0.457
-0.451
-0.462
-0.475
-0.471
-0.461
-0.465
-0.466
-0.476
-0.482
-0.481
-0.49
-0.49
-0.49
-0.482
-0.467
-0.479
-0.491
-0.468
-0.466
-0.473
-0.451
-0.447
-0.462
-0.478
-0.488
-0.48
-0.469
-0.469
-0.478
-0.474
-0.449
-0.435
-0.449
-0.461
-0.472
-0.469
-0.443
-0.443
-0.445
-0.445
-0.455
-0.465
-0.483
-0.478
-0.473
-0.487
-0.48
-0.464
-0.478
-0.471
-0.455
-0.456
-0.47
-0.518
-0.509
-0.484
-0.503
-0.536
-0.59
-0.626
-0.623
-0.605
-0.605
-0.601
-0.614
-0.629
-0.616
-0.603
-0.575
-0.543
-0.521
-0.523
-0.538
-0.528
-0.526
-0.529
-0.532
-0.553
-0.541
-0.54
-0.539
-0.541
-0.606
-0.643
-0.651
-0.669
-0.697
-0.705
-0.731
-0.788
-0.816
-0.845
-0.885
-0.915
-0.949
-0.983
-1.002
-1.004
-0.996
-0.981
-0.92
-0.872
-0.811
-0.731
-0.677
-0.597
-0.47
-0.312
-0.167
-0.035
0.09
0.186
0.259
0.406
0.59
0.74
0.878
1.011
1.113
1.135
1.143
1.161
1.159
1.181
1.26
1.288
1.258
1.276
1.269
1.209
1.169
1.093
0.992
0.871
0.732
0.621
0.515
0.436
0.399
0.351
0.268
0.192
0.135
0.08
0.026
-0.018
-0.046
-0.07
-0.082
-0.101
-0.112
-0.11
-0.105
-0.09
-0.116
-0.151
-0.151
-0.151
-0.177
-0.199
-0.202
-0.205
-0.222
-0.257
-0.283
-0.313
-0.34
-0.35
-0.361
-0.367
-0.392
-0.417
-0.428
-0.44
-0.433
-0.419
-0.422
-0.439
-0.458
-0.469
-0.47
-0.471
-0.448
-0.437
-0.444
-0.472
-0.486
-0.465
-0.462
-0.452
-0.459
-0.462
-0.472
-0.477
-0.481
-0.492
-0.488
-0.494
-0.472
-0.472
-0.482
-0.48
-0.474
-0.473
-0.484
-0.489
-0.484
-0.485
-0.493
-0.49
-0.486
-0.469
-0.47
-0.48
-0.477
-0.478
-0.478
-0.489
-0.495
-0.488
-0.487
-0.499
-0.507
-0.512
-0.512
-0.521
-0.519
-0.494
-0.497
-0.495
-0.497
-0.507
-0.487
-0.488
-0.509
-0.522
-0.517
-0.498
-0.499
-0.514
-0.511
-0.51
-0.525
-0.52
-0.516
-0.516
-0.508
-0.51
-0.526
-0.53
-0.533
-0.541
-0.52
-0.512
-0.513
-0.52
-0.528
-0.522
-0.537
-0.535
-0.534
-0.542
-0.541
-0.546
-0.549
-0.535
-0.525
-0.527
-0.531
-0.549
-0.553
-0.542
-0.543
-0.539
-0.517
-0.521
-0.542
-0.545
-0.533
-0.533
-0.549
-0.549
-0.543
-0.527
-0.519
-0.528
-0.542
-0.552
-0.535
-0.529
-0.531
-0.533
-0.538
-0.535
-0.523
-0.511
-0.515
-0.501
-0.511
-0.54
-0.547
-0.543
-0.524
-0.526
-0.535
-0.535
-0.543
-0.553
-0.561
-0.557
-0.538
-0.521
-0.527
-0.537
-0.546
-0.547
-0.544
-0.543
-0.523
-0.529
-0.541
-0.536
-0.535
-0.529
-0.551
-0.568
-0.57
-0.58
-0.584
-0.58
-0.551
-0.533
-0.544
-0.547
-0.554
-0.536
-0.527
-0.554
-0.545
-0.524
-0.521
-0.534
-0.548
-0.547
-0.546
-0.557
-0.557
-0.541
-0.536
-0.539
-0.558
-0.569
-0.565
-0.556
-0.55
-0.545
-0.531
-0.531
-0.532
-0.546
-0.558
-0.551
-0.546
-0.54
-0.554
-0.569
-0.557
-0.529
-0.519
-0.533
-0.515
-0.498
-0.515
-0.534
-0.533
-0.51
-0.523
-0.534
-0.52
-0.527
-0.527
-0.534
-0.559
-0.58
-0.573
-0.551
-0.531
-0.519
-0.525
-0.535
-0.542
-0.511
-0.472
-0.478
-0.48
-0.482
-0.498
-0.509
-0.522
-0.528
-0.529
-0.526
-0.51
-0.495
-0.492
-0.495
-0.503
-0.516
-0.513
-0.52
-0.517
-0.481
-0.458
-0.458
-0.488
-0.511
-0.501
-0.48
-0.472
-0.469
-0.459
-0.455
-0.447
-0.435
-0.418
-0.428
-0.439
-0.43
-0.444
-0.434
-0.422
-0.424
-0.427
-0.432
-0.435
-0.432
-0.421
-0.422
-0.421
-0.428
-0.431
-0.429
-0.423
-0.422
-0.426
-0.397
-0.384
-0.402
-0.417
-0.41
-0.401
-0.416
-0.415
-0.414
-0.407
-0.379
-0.376
-0.384
-0.391
-0.393
-0.388
-0.401
-0.41
-0.39
-0.376
-0.395
-0.414
-0.423
-0.397
-0.357
-0.353
-0.398
-0.434
-0.435
-0.441
-0.434
-0.444
-0.43
-0.4
-0.404
-0.41
-0.419
-0.429
-0.428
-0.433
-0.439
-0.433
-0.426
-0.423
-0.415
-0.383
-0.381
-0.42
-0.425
-0.42
-0.428
-0.419
-0.403
-0.398
-0.43
-0.443
-0.404
-0.397
-0.412
-0.426
-0.43
-0.423
-0.413
-0.407
-0.414
-0.427
-0.433
-0.427
-0.426
-0.433
-0.454
-0.465
-0.462
-0.423
-0.392
-0.403
-0.405
-0.406
-0.408
-0.412
-0.417
-0.411
-0.413
-0.427
-0.416
-0.406
-0.42
-0.418
-0.396
-0.386
-0.399
-0.419
-0.422
-0.415
-0.424
-0.43
-0.425
-0.418
-0.413
-0.417
-0.424
-0.429
-0.424
-0.417
-0.418
-0.421
-0.419
-0.43
-0.449
-0.459
-0.454
-0.442
-0.448
-0.421
-0.373
-0.364
-0.375
-0.408
-0.433
-0.421
-0.415
-0.416
-0.409
-0.403
-0.408
-0.432
-0.422
-0.405
-0.433
-0.444
-0.425
-0.423
-0.432
-0.431
-0.431
-0.426
-0.41
-0.412
-0.426
-0.424
-0.418
-0.42
-0.435
-0.45
-0.449
-0.444
-0.44
-0.432
-0.422
-0.408
-0.389
-0.4
-0.44
-0.438
-0.422
-0.422
-0.405
-0.405
-0.422
-0.425
-0.406
-0.392
-0.379
-0.385
-0.379
-0.368
-0.398
-0.414
-0.413
-0.394
-0.39
-0.397
-0.402
-0.406
-0.412
-0.418
-0.418
-0.418
-0.418
-0.406
-0.403
-0.406
-0.39
-0.394
-0.399
-0.413
-0.408
-0.396
-0.402
-0.401
-0.41
-0.413
-0.405
-0.402
-0.411
-0.418
-0.413
-0.414
-0.401
-0.365
-0.371
-0.397
-0.406
-0.411
-0.41
-0.403
-0.399
-0.4
-0.402
-0.393
-0.398
-0.426
-0.428
-0.412
-0.411
-0.423
-0.431
-0.431
-0.434
-0.439
-0.436
-0.431
-0.436
-0.467
-0.49
-0.48
-0.449
-0.442
-0.476
-0.492
-0.485
-0.481
-0.475
-0.473
-0.48
-0.48
-0.481
-0.488
-0.489
-0.495
-0.504
-0.498
-0.469
-0.445
-0.436
-0.441
-0.43
-0.406
-0.411
-0.415
-0.408
-0.411
-0.421
-0.426
-0.424
-0.426
-0.445
-0.433
-0.408
-0.413
-0.417
-0.446
-0.465
-0.452
-0.429
-0.416
-0.434
-0.459
-0.454
-0.435
-0.424
-0.417
-0.427
-0.412
-0.413
-0.439
-0.436
-0.443
-0.43
-0.423
-0.44
-0.461
-0.458
-0.45
-0.442
-0.425
-0.443
-0.453
-0.457
-0.463
-0.469
-0.474
-0.473
-0.457
-0.436
-0.442
-0.452
-0.439
-0.423
-0.432
-0.433
-0.432
-0.432
-0.425
-0.423
-0.438
-0.462
-0.454
-0.437
-0.44
-0.451
-0.461
-0.447
-0.436
-0.457
-0.475
-0.452
-0.423
-0.439
-0.454
-0.452
-0.441
-0.436
-0.44
-0.444
-0.446
-0.441
-0.435
-0.439
-0.439
-0.437
-0.444
-0.445
-0.44
-0.44
-0.427
-0.409
-0.412
-0.429
-0.455
-0.442
-0.403
-0.41
-0.453
-0.461
-0.431
-0.421
-0.432
-0.432
-0.425
-0.398
-0.394
-0.422
-0.442
-0.455
-0.447
-0.436
-0.429
-0.438
-0.442
-0.449
-0.464
-0.453
-0.446
-0.442
-0.427
-0.418
-0.418
-0.428
-0.443
-0.444
-0.43
-0.43
-0.421
-0.432
-0.452
-0.439
-0.427
-0.417
-0.42
-0.432
-0.43
-0.427
-0.434
-0.432
-0.421
-0.431
-0.449
-0.451
-0.446
-0.452
-0.443
-0.441
-0.44
-0.435
-0.458
-0.492
-0.523
-0.554
-0.579
-0.589
-0.578
-0.558
-0.591
-0.603
-0.585
-0.606
-0.587
-0.567
-0.544
-0.506
-0.513
-0.514
-0.498
-0.501
-0.503
-0.502
-0.508
-0.508
-0.507
-0.495
-0.498
-0.525
-0.558
-0.591
-0.629
-0.671
-0.683
-0.706
-0.756
-0.809
-0.85
-0.875
-0.903
-0.955
-1.008
-1.018
-1.022
-1.038
-1.028
-0.983
-0.912
-0.836
-0.796
-0.76
-0.652
-0.527
-0.414
-0.262
-0.11
0.012
0.114
0.164
0.264
0.458
0.63
0.761
0.906
1.018
1.058
1.089
1.099
1.107
1.135
1.187
1.238
1.254
1.264
1.276
1.244
1.188
1.145
1.056
0.94
0.813
0.691
0.612
0.553
0.469
0.398
0.341
0.28
0.229
0.136
0.059
0.024
-0.017
-0.043
-0.036
-0.03
-0.056
-0.056
-0.046
-0.059
-0.072
-0.097
-0.132
-0.145
-0.143
-0.138
-0.169
-0.203
-0.194
-0.223
-0.266
-0.295
-0.307
-0.316
-0.335
-0.348
-0.367
-0.394
-0.435
-0.446
-0.435
-0.43
-0.405
-0.398
-0.402
-0.407
-0.404
-0.379
-0.365
-0.36
-0.371
-0.386
-0.402
-0.42
-0.433
-0.446
-0.45
-0.459
-0.488
-0.471
-0.417
-0.407
-0.414
-0.429
-0.44
-0.457
-0.465
-0.445
-0.443
-0.457
-0.467
-0.472
-0.461
-0.444
-0.453
-0.471
-0.476
-0.466
-0.464
-0.476
-0.476
-0.472
-0.471
-0.469
-0.473
-0.481
-0.482
-0.478
-0.463
-0.457
-0.461
-0.461
-0.473
-0.483
-0.496
-0.491
-0.469
-0.462
-0.462
-0.469
-0.476
-0.481
-0.472
-0.463
-0.467
-0.48
-0.491
-0.488
-0.487
-0.49
-0.502
-0.504
-0.491
-0.476
-0.484
-0.509
-0.507
-0.482
-0.469
-0.476
-0.494
-0.505
-0.497
-0.495
-0.503
-0.508
-0.494
-0.482
-0.507
-0.522
-0.509
-0.512
-0.52
-0.519
-0.505
-0.478
-0.473
-0.486
-0.498
-0.506
-0.511
-0.517
-0.514
-0.497
-0.488
-0.502
-0.498
-0.493
-0.518
-0.524
-0.534
-0.539
-0.531
-0.515
-0.503
-0.511
-0.508
-0.494
-0.46
-0.457
-0.5
-0.525
-0.526
-0.495
-0.472
-0.473
-0.492
-0.525
-0.525
-0.501
-0.496
-0.506
-0.511
-0.526
-0.519
-0.515
-0.519
-0.507
-0.506
-0.501
-0.518
-0.518
-0.482
-0.483
-0.5
-0.512
-0.511
-0.513
-0.512
-0.485
-0.473
-0.464
-0.483
-0.514
-0.52
-0.531
-0.52
-0.522
-0.538
-0.522
-0.508
-0.506
-0.511
-0.516
-0.507
-0.496
-0.485
-0.486
-0.496
-0.503
-0.507
-0.504
-0.509
-0.516
-0.508
-0.51
-0.509
-0.496
-0.494
-0.497
-0.513
-0.521
-0.506
-0.506
-0.501
-0.487
-0.498
-0.512
-0.52
-0.526
-0.514
-0.475
-0.463
-0.502
-0.523
-0.512
-0.504
-0.5
-0.495
-0.49
-0.488
-0.489
-0.489
-0.484
-0.493
-0.512
-0.516
-0.498
-0.469
-0.454
-0.458
-0.474
-0.482
-0.487
-0.508
-0.499
-0.47
-0.458
-0.465
-0.474
-0.484
-0.484
-0.466
-0.46
-0.451
-0.44
-0.443
-0.431
-0.419
-0.454
-0.481
-0.467
-0.456
-0.462
-0.444
-0.423
-0.432
-0.441
-0.461
-0.463
-0.445
-0.432
-0.418
-0.409
-0.415
-0.441
-0.436
-0.415
-0.398
-0.391
-0.404
-0.409
-0.403
-0.404
-0.401
-0.392
-0.395
-0.397
-0.379
-0.369
-0.382
-0.386
-0.385
-0.388
-0.372
-0.364
-0.376
-0.384
-0.378
-0.376
-0.389
-0.368
-0.367
-0.383
-0.379
-0.373
-0.36
-0.353
-0.366
-0.385
-0.367
-0.371
-0.377
-0.356
-0.363
-0.366
-0.361
-0.351
-0.347
-0.359
-0.367
-0.361
-0.365
-0.378
-0.387
-0.38
-0.359
-0.364
-0.361
-0.355
-0.364
-0.379
-0.383
-0.39
-0.394
-0.382
-0.371
-0.367
-0.38
-0.379
-0.381
-0.372
-0.354
-0.376
-0.383
-0.366
-0.362
-0.365
-0.366
-0.37
-0.388
-0.391
-0.367
-0.365
-0.394
-0.419
-0.404
-0.386
-0.368
-0.344
-0.371
-0.382
-0.388
-0.398
-0.391
-0.382
-0.371
-0.376
-0.38
-0.382
-0.362
-0.355
-0.356
-0.363
-0.403
-0.412
-0.4
-0.404
-0.388
-0.359
-0.356
-0.371
-0.386
-0.379
-0.362
-0.363
-0.356
-0.348
-0.357
-0.36
-0.353
-0.36
-0.368
-0.369
-0.382
-0.383
-0.386
-0.372
-0.352
-0.367
-0.388
-0.384
-0.368
-0.358
-0.346
-0.357
-0.381
-0.384
-0.373
-0.378
-0.389
-0.383
-0.373
-0.348
-0.348
-0.374
-0.368
-0.373
-0.389
-0.406
-0.409
-0.397
-0.374
-0.355
-0.379
-0.377
-0.354
-0.358
-0.359
-0.378
-0.39
-0.388
-0.402
-0.394
-0.376
-0.377
-0.379
-0.377
-0.366
-0.379
-0.403
-0.397
-0.378
-0.368
-0.369
-0.381
-0.377
-0.374
-0.394
-0.394
-0.388
-0.385
-0.376
-0.362
-0.353
-0.361
-0.367
-0.372
-0.376
-0.374
-0.38
-0.38
-0.369
-0.36
-0.359
-0.357
-0.337
-0.345
-0.373
-0.371
-0.366
-0.373
-0.381
-0.367
-0.361
-0.373
-0.369
-0.359
-0.352
-0.363
-0.389
-0.393
-0.38
-0.358
-0.33
-0.325
-0.326
-0.336
-0.348
-0.35
-0.345
-0.327
-0.329
-0.347
-0.374
-0.381
-0.384
-0.392
-0.378
-0.367
-0.364
-0.376
-0.387
-0.39
-0.382
-0.372
-0.371
-0.368
-0.361
-0.371
-0.393
-0.396
-0.393
-0.393
-0.392
-0.402
-0.409
-0.405
-0.402
-0.405
-0.394
-0.376
-0.384
-0.405
-0.428
-0.442
-0.432
-0.436
-0.44
-0.431
-0.423
-0.433
-0.459
-0.453
-0.451
-0.454
-0.449
-0.442
-0.446
-0.459
-0.457
-0.464
-0.464
-0.452
-0.449
-0.435
-0.42
-0.411
-0.409
-0.409
-0.398
-0.378
-0.363
-0.371
-0.381
-0.38
-0.379
-0.38
-0.388
-0.392
-0.394
-0.39
-0.392
-0.404
-0.406
-0.395
-0.37
-0.374
-0.388
-0.387
-0.386
-0.391
-0.4
-0.406
-0.426
-0.431
-0.404
-0.374
-0.385
-0.411
-0.415
-0.412
-0.412
-0.424
-0.418
-0.425
-0.428
-0.388
-0.389
-0.41
-0.427
-0.424
-0.399
-0.388
-0.375
-0.388
-0.391
-0.372
-0.395
-0.418
-0.428
-0.429
-0.4
-0.384
-0.383
-0.381
-0.387
-0.389
-0.396
-0.405
-0.394
-0.392
-0.395
-0.392
-0.393
-0.405
-0.42
-0.414
-0.406
-0.403
-0.39
-0.384
-0.409
-0.414
-0.397
-0.395
-0.39
-0.39
-0.404
-0.413
-0.397
-0.386
-0.39
-0.391
-0.388
-0.384
-0.38
-0.383
-0.38
-0.382
-0.405
-0.403
-0.391
-0.402
-0.398
-0.387
-0.376
-0.37
-0.381
-0.368
-0.364
-0.376
-0.378
-0.385
-0.387
-0.38
-0.372
-0.374
-0.378
-0.385
-0.401
-0.399
-0.396
-0.404
-0.397
-0.387
-0.37
-0.374
-0.386
-0.379
-0.371
-0.363
-0.369
-0.377
-0.388
-0.397
-0.396
-0.393
-0.371
-0.37
-0.374
-0.363
-0.373
-0.385
-0.382
-0.391
-0.388
-0.382
-0.393
-0.383
-0.377
-0.375
-0.368
-0.375
-0.383
-0.386
-0.383
-0.391
-0.404
-0.399
-0.418
-0.46
-0.481
-0.49
-0.517
-0.552
-0.562
-0.554
-0.562
-0.563
-0.533
-0.512
-0.485
-0.465
-0.456
-0.452
-0.454
-0.445
-0.439
-0.43
-0.454
-0.47
-0.445
-0.436
-0.434
-0.442
-0.494
-0.552
-0.569
-0.581
-0.593
-0.63
-0.69
-0.722
-0.759
-0.803
-0.849
-0.906
-0.965
-1.028
-1.095
-1.125
-1.123
-1.106
-1.062
-1.011
-0.969
-0.913
-0.845
-0.78
-0.703
-0.569
-0.416
-0.295
-0.164
-0.061
0.001
0.086
0.248
0.453
0.594
0.719
0.857
0.931
0.951
0.978
1.012
1.046
1.048
1.081
1.129
1.133
1.155
1.143
1.111
1.054
0.971
0.882
0.781
0.712
0.642
0.57
0.497
0.45
0.436
0.419
0.348
0.257
0.229
0.183
0.123
0.08
0.051
0.061
0.054
0.041
0.03
0.008
-0.015
-0.038
-0.063
-0.073
-0.072
-0.086
-0.092
-0.095
-0.12
-0.137
-0.15
-0.202
-0.238
-0.247
-0.267
-0.284
-0.294
-0.311
-0.323
-0.325
-0.334
-0.324
-0.319
-0.321
-0.312
-0.322
-0.327
-0.344
-0.357
-0.348
-0.342
-0.326
-0.327
-0.346
-0.353
-0.358
-0.362
-0.364
-0.357
-0.344
-0.351
-0.363
-0.376
-0.375
-0.369
-0.374
-0.368
-0.363
-0.363
-0.362
-0.365
-0.38
-0.376
-0.36
-0.362
-0.38
-0.368
-0.334
-0.348
-0.377
-0.379
-0.364
-0.353
-0.359
-0.359
-0.368
-0.377
-0.373
-0.365
-0.359
-0.364
-0.383
-0.376
-0.387
-0.392
-0.362
-0.364
-0.363
-0.365
-0.369
-0.38
-0.382
-0.373
-0.386
-0.389
-0.396
-0.399
-0.389
-0.382
-0.391
-0.405
-0.389
-0.362
-0.378
-0.391
-0.384
-0.396
-0.393
-0.389
-0.395
-0.399
-0.392
-0.394
-0.388
-0.367
-0.382
-0.39
-0.387
-0.37
-0.373
-0.378
-0.35
-0.367
-0.384
-0.377
-0.37
-0.373
-0.389
-0.397
-0.397
-0.398
-0.389
-0.384
-0.386
-0.38
-0.369
-0.379
-0.397
-0.392
-0.385
-0.373
-0.382
-0.386
-0.389
-0.405
-0.381
-0.369
-0.377
-0.372
-0.373
-0.358
-0.345
-0.347
-0.343
-0.353
-0.359
-0.37
-0.389
-0.372
-0.35
-0.337
-0.35
-0.369
-0.359
-0.354
-0.349
-0.352
-0.372
-0.379
-0.376
-0.365
-0.343
-0.341
-0.353
-0.356
-0.359
-0.355
-0.361
-0.366
-0.363
-0.366
-0.363
-0.345
-0.334
-0.334
-0.338
-0.347
-0.35
-0.359
-0.372
-0.361
-0.344
-0.339
-0.363
-0.38
-0.352
-0.345
-0.358
-0.35
-0.352
-0.359
-0.355
-0.353
-0.351
-0.354
-0.348
-0.336
-0.334
-0.33
-0.337
-0.331
-0.336
-0.359
-0.357
-0.339
-0.319
-0.333
-0.339
-0.347
-0.346
-0.327
-0.337
-0.341
-0.347
-0.359
-0.351
-0.334
-0.33
-0.321
-0.324
-0.357
-0.366
-0.353
-0.347
-0.342
-0.335
-0.343
-0.35
-0.343
-0.335
-0.319
-0.326
-0.331
-0.334
-0.345
-0.335
-0.337
-0.33
-0.314
-0.304
-0.307
-0.313
-0.311
-0.311
-0.301
-0.294
-0.301
-0.311
-0.309
-0.303
-0.297
-0.298
-0.296
-0.293
-0.297
-0.298
-0.302
-0.31
-0.311
-0.295
-0.284
-0.285
-0.295
-0.289
-0.276
-0.282
-0.288
-0.298
-0.303
-0.29
-0.282
-0.284
-0.284
-0.294
-0.283
-0.259
-0.25
-0.257
-0.272
-0.279
-0.288
-0.282
-0.273
-0.278
-0.277
-0.284
-0.29
-0.291
-0.287
-0.284
-0.282
-0.281
-0.283
-0.281
-0.279
-0.277
-0.266
-0.272
-0.273
-0.276
-0.288
-0.282
-0.285
-0.281
-0.288
-0.306
-0.318
-0.303
-0.241
-0.237
-0.272
-0.29
-0.306
-0.27
-0.262
-0.291
-0.276
-0.263
-0.263
-0.272
-0.289
-0.287
-0.284
-0.28
-0.269
-0.272
-0.284
-0.289
-0.285
-0.278
-0.282
-0.283
-0.277
-0.286
-0.287
-0.282
-0.285
-0.292
-0.304
-0.302
-0.292
-0.296
-0.298
-0.293
-0.308
-0.315
-0.3
-0.292
-0.285
-0.285
-0.292
-0.303
-0.306
-0.299
-0.282
-0.256
-0.263
-0.288
-0.295
-0.292
-0.293
-0.284
-0.273
-0.294
-0.304
-0.296
-0.303
-0.3
-0.29
-0.295
-0.295
-0.303
-0.292
-0.272
-0.276
-0.282
-0.293
-0.295
-0.299
-0.297
-0.282
-0.282
-0.277
-0.252
-0.247
-0.283
-0.318
-0.298
-0.273
-0.273
-0.272
-0.302
-0.32
-0.309
-0.309
-0.293
-0.284
-0.297
-0.327
-0.332
-0.285
-0.266
-0.281
-0.282
-0.288
-0.307
-0.309
-0.294
-0.288
-0.286
-0.29
-0.309
-0.33
-0.326
-0.314
-0.316
-0.309
-0.295
-0.28
-0.274
-0.283
-0.294
-0.3
-0.299
-0.293
-0.295
-0.291
-0.293
-0.3
-0.3
-0.306
-0.305
-0.3
-0.292
-0.289
-0.277
-0.272
-0.272
-0.281
-0.29
-0.273
-0.279
-0.297
-0.301
-0.278
-0.27
-0.273
-0.27
-0.253
-0.237
-0.257
-0.278
-0.296
-0.303
-0.301
-0.304
-0.301
-0.284
-0.276
-0.295
-0.3
-0.293
-0.284
-0.284
-0.273
-0.256
-0.264
-0.266
-0.271
-0.286
-0.284
-0.276
-0.269
-0.28
-0.292
-0.282
-0.289
-0.281
-0.271
-0.297
-0.308
-0.302
-0.299
-0.297
-0.289
-0.285
-0.288
-0.292
-0.302
-0.31
-0.297
-0.293
-0.307
-0.33
-0.338
-0.318
-0.299
-0.298
-0.301
-0.315
-0.336
-0.328
-0.336
-0.356
-0.357
-0.345
-0.333
-0.351
-0.336
-0.321
-0.347
-0.358
-0.367
-0.383
-0.401
-0.387
-0.36
-0.361
-0.381
-0.391
-0.388
-0.399
-0.407
-0.407
-0.395
-0.378
-0.368
-0.361
-0.345
-0.321
-0.306
-0.312
-0.312
-0.303
-0.305
-0.304
-0.306
-0.309
-0.306
-0.311
-0.322
-0.318
-0.312
-0.325
-0.323
-0.321
-0.313
-0.302
-0.319
-0.327
-0.311
-0.315
-0.33
-0.31
-0.306
-0.321
-0.322
-0.338
-0.33
-0.317
-0.328
-0.331
-0.348
-0.338
-0.308
-0.312
-0.32
-0.318
-0.317
-0.311
-0.306
-0.334
-0.349
-0.342
-0.335
-0.318
-0.315
-0.313
-0.317
-0.322
-0.33
-0.337
-0.344
-0.362
-0.36
-0.354
-0.336
-0.308
-0.291
-0.293
-0.302
-0.306
-0.319
-0.337
-0.345
-0.342
-0.33
-0.332
-0.344
-0.345
-0.339
-0.328
-0.333
-0.344
-0.337
-0.329
-0.321
-0.319
-0.315
-0.286
-0.269
-0.293
-0.324
-0.338
-0.344
-0.337
-0.341
-0.341
-0.339
-0.346
-0.347
-0.348
-0.355
-0.368
-0.351
-0.351
-0.366
-0.346
-0.338
-0.331
-0.319
-0.31
-0.306
-0.324
-0.327
-0.324
-0.345
-0.352
-0.355
-0.324
-0.258
-0.251
-0.296
-0.331
-0.331
-0.331
-0.324
-0.32
-0.326
-0.323
-0.322
-0.328
-0.337
-0.341
-0.333
-0.319
-0.308
-0.299
-0.306
-0.309
-0.312
-0.32
-0.32
-0.332
-0.321
-0.312
-0.308
-0.315
-0.335
-0.321
-0.315
-0.327
-0.333
-0.342
-0.352
-0.347
-0.336
-0.346
-0.336
-0.318
-0.334
-0.343
-0.345
-0.354
-0.37
-0.381
-0.391
-0.419
-0.435
-0.458
-0.471
-0.474
-0.474
-0.46
-0.45
-0.433
-0.428
-0.433
-0.412
-0.372
-0.336
-0.318
-0.331
-0.356
-0.366
-0.353
-0.359
-0.39
-0.411
-0.402
-0.4
-0.438
-0.453
-0.475
-0.509
-0.547
-0.598
-0.629
-0.669
-0.717
-0.772
-0.834
-0.888
-0.967
-1.048
-1.098
-1.121
-1.117
-1.097
-1.054
-0.997
-0.955
-0.907
-0.856
-0.808
-0.706
-0.57
-0.451
-0.278
-0.128
-0.059
0.024
0.137
0.314
0.488
0.589
0.721
0.854
0.897
0.937
0.987
1.002
1.004
0.996
1.03
1.079
1.083
1.089
1.089
1.052
0.985
0.914
0.853
0.777
0.702
0.627
0.541
0.497
0.487
0.457
0.407
0.365
0.339
0.28
0.186
0.133
0.123
0.115
0.107
0.097
0.096
0.092
0.068
0.047
0.022
0.007
0.009
0.009
-0.007
-0.015
-0.03
-0.06
-0.086
-0.132
-0.163
-0.179
-0.189
-0.202
-0.227
-0.241
-0.25
-0.237
-0.237
-0.241
-0.226
-0.253
-0.262
-0.232
-0.237
-0.26
-0.27
-0.279
-0.288
-0.293
-0.294
-0.291
-0.29
-0.292
-0.3
-0.309
-0.292
-0.271
-0.271
-0.284
-0.282
-0.272
-0.279
-0.285
-0.289
-0.297
-0.309
-0.318
-0.306
-0.305
-0.316
-0.296
-0.281
-0.286
-0.295
-0.293
-0.293
-0.298
-0.293
-0.294
-0.288
-0.299
-0.31
-0.301
-0.291
-0.289
-0.283
-0.282
-0.306
-0.315
-0.312
-0.305
-0.305
-0.297
-0.285
-0.265
-0.281
-0.316
-0.3
-0.3
-0.297
-0.288
-0.284
-0.28
-0.299
-0.301
-0.295
-0.311
-0.31
-0.296
-0.284
-0.277
-0.281
-0.294
-0.321
-0.336
-0.324
-0.308
-0.306
-0.312
-0.305
-0.303
-0.303
-0.3
-0.294
-0.298
-0.31
-0.309
-0.299
-0.296
-0.318
-0.303
-0.28
-0.281
-0.302
-0.304
-0.28
-0.286
-0.298
-0.312
-0.311
-0.314
-0.321
-0.302
-0.297
-0.304
-0.275
-0.269
-0.291
-0.291
-0.292
-0.288
-0.286
-0.29
-0.295
-0.3
-0.301
-0.3
-0.303
-0.306
-0.295
-0.263
-0.24
-0.253
-0.284
-0.311
-0.32
-0.316
-0.314
-0.308
-0.307
-0.308
-0.292
-0.285
-0.291
-0.301
-0.305
-0.296
-0.286
-0.287
-0.288
-0.282
-0.277
-0.275
-0.275
-0.276
-0.286
-0.304
-0.308
-0.305
-0.307
-0.303
-0.292
-0.275
-0.277
-0.286
-0.292
-0.293
-0.285
-0.297
-0.301
-0.304
-0.299
-0.281
-0.271
-0.262
-0.272
-0.282
-0.272
-0.271
-0.294
-0.299
-0.278
-0.267
-0.264
-0.264
-0.267
-0.283
-0.296
-0.282
-0.276
-0.281
-0.271
-0.252
-0.234
-0.243
-0.255
-0.249
-0.259
-0.275
-0.269
-0.249
-0.24
-0.238
-0.241
-0.262
-0.264
-0.25
-0.256
-0.259
-0.265
-0.252
-0.223
-0.237
-0.239
-0.237
-0.256
-0.268
-0.257
-0.242
-0.245
-0.23
-0.228
-0.225
-0.218
-0.238
-0.238
-0.225
-0.233
-0.239
-0.231
-0.224
-0.226
-0.222
-0.219
-0.214
-0.221
-0.234
-0.228
-0.233
-0.242
-0.233
-0.215
-0.214
-0.22
-0.221
-0.221
-0.21
-0.209
-0.213
-0.215
-0.203
-0.176
-0.179
-0.203
-0.216
-0.213
-0.206
-0.204
-0.221
-0.226
-0.206
-0.196
-0.2
-0.198
-0.194
-0.187
-0.168
-0.174
-0.188
-0.194
-0.192
-0.178
-0.183
-0.184
-0.184
-0.201
-0.216
-0.216
-0.197
-0.191
-0.195
-0.199
-0.209
-0.222
-0.225
-0.223
-0.216
-0.207
-0.213
-0.218
-0.217
-0.224
-0.232
-0.216
-0.188
-0.174
-0.167
-0.163
-0.176
-0.212
-0.234
-0.218
-0.199
-0.212
-0.215
-0.215
-0.226
-0.217
-0.217
-0.216
-0.216
-0.206
-0.194
-0.203
-0.205
-0.205
-0.213
-0.21
-0.204
-0.21
-0.214
-0.222
-0.229
-0.208
-0.195
-0.213
-0.223
-0.215
-0.218
-0.225
-0.221
-0.221
-0.215
-0.203
-0.192
-0.207
-0.224
-0.207
-0.23
-0.258
-0.257
-0.224
-0.178
-0.179
-0.173
-0.193
-0.226
-0.238
-0.246
-0.236
-0.233
-0.236
-0.237
-0.228
-0.221
-0.218
-0.215
-0.227
-0.216
-0.198
-0.199
-0.197
-0.213
-0.224
-0.212
-0.216
-0.216
-0.217
-0.228
-0.215
-0.22
-0.217
-0.199
-0.203
-0.23
-0.227
-0.211
-0.215
-0.202
-0.205
-0.195
-0.184
-0.195
-0.209
-0.224
-0.225
-0.219
-0.204
-0.201
-0.2
-0.21
-0.221
-0.22
-0.224
-0.21
-0.201
-0.213
-0.23
-0.235
-0.229
-0.23
-0.225
-0.215
-0.207
-0.207
-0.225
-0.24
-0.248
-0.231
-0.221
-0.229
-0.225
-0.209
-0.195
-0.189
-0.203
-0.232
-0.214
-0.202
-0.211
-0.211
-0.222
-0.223
-0.216
-0.183
-0.176
-0.192
-0.184
-0.189
-0.202
-0.21
-0.197
-0.172
-0.166
-0.166
-0.172
-0.192
-0.2
-0.204
-0.209
-0.207
-0.215
-0.223
-0.227
